Time (Seconds),Amplitude (Volts) [Filtered 0.3-10.0Hz]
21932,0.05406052659923792
21933,0.048837024576464855
21934,0.04329973961197143
21935,0.037457649490952635
21936,0.03132436590479842
21937,0.024918807181464973
21938,0.0182654644372158
21939,0.011394397839082377
21940,0.004340932426163322
21941,-0.0028550461424211027
21942,-0.010149796299019055
21943,-0.017496084175487953
21944,-0.02484374897636868
21945,-0.03214119130594869
21946,-0.03933750064008184
21947,-0.04638438051995509
21948,-0.05323734056231433
21949,-0.05985610891753765
21950,-0.06620445678408746
21951,-0.07224964507757592
21952,-0.07796194959575715
21953,-0.08331467673876232
21954,-0.08828458513128841
21955,-0.09285238745961318
21956,-0.09700301503026579
21957,-0.1007255598493163
21958,-0.10401329465641329
21959,-0.10686407216467005
21960,-0.10928067302904913
21961,-0.1112708399669101
21962,-0.11284733726274233
21963,-0.11402780795417072
21964,-0.11483407480764984
21965,-0.11529177456023422
21966,-0.11543094181965535
21967,-0.11528633117107213
21968,-0.11489642527909612
21969,-0.11430158405445048
21970,-0.11354188210058558
21971,-0.11265474156062788
21972,-0.11167266643863932
21973,-0.11062172021748115
21974,-0.10952137679368781
21975,-0.10838551563888776
21976,-0.10722358070357726
21977,-0.10604155771615179
21978,-0.104842866187401
21979,-0.1036288253538029
21980,-0.10239885205669141
21981,-0.10115112902574369
21982,-0.09988368988446383
21983,-0.09859533735911374
21984,-0.09728604880196302
21985,-0.09595664034719313
21986,-0.09460799608180774
21987,-0.09324065294731022
21988,-0.09185485379549747
21989,-0.09045066229162207
21990,-0.08902826941843368
21991,-0.08758847726407752
21992,-0.0861326153581089
21993,-0.08466192376574144
21994,-0.08317743733811739
21995,-0.08168055586526012
21996,-0.08017352081393586
21997,-0.07865929092016946
21998,-0.07714079129188908
21999,-0.075619952076916
22000,-0.07409728854086195
22001,-0.07257218950748553
22002,-0.07104324959398593
22003,-0.06950832760275844
22004,-0.06796471909691355
22005,-0.06640957104775082
22006,-0.06484005467890523
22007,-0.06325280858727679
22008,-0.061642840962142835
22009,-0.06000250298061157
22010,-0.05832066887508673
22011,-0.05658222868847194
22012,-0.054768551969517805
22013,-0.052858975040650985
22014,-0.05083257841396892
22015,-0.04867003410767701
22016,-0.04635551013543492
22017,-0.04387785699772351
22018,-0.04123050470684424
22019,-0.03841066619516849
22020,-0.035418534581306456
22021,-0.03225669782123268
22022,-0.028930022827335464
22023,-0.025445776013359414
22024,-0.02181353635507419
22025,-0.018045248568832477
22026,-0.014155676520924105
22027,-0.010162810709294891
22028,-0.006087986163110276
22029,-0.0019557681062808054
22030,0.0022063284235434525
22031,0.006368166725347691
22032,0.010497595689707831
22033,0.014561515046911399
22034,0.01852691315139043
22035,0.022361654468887954
22036,0.026035367036616658
22037,0.029520435285186664
22038,0.03279284977515228
22039,0.035832863551435445
22040,0.038625244707240415
22041,0.041159056052863616
22042,0.043427558883556164
22043,0.04542843055099993
22044,0.047163555462619564
22045,0.04863818056064067
22046,0.04986018027829292
22047,0.05083978945054535
22048,0.051589479004228916
22049,0.05212374197470584
22050,0.05245868711476662
22051,0.05261130307622968
22052,0.052598459486708556
22053,0.052435898647351695
22054,0.052137375805772934
22055,0.05171401237614182
22056,0.05117401318589046
22057,0.050522891841257786
22058,0.04976416086327843
22059,0.04890027409271566
22060,0.04793357458207265
22061,0.04686701966897732
22062,0.04570455349587805
22063,0.044451326327654375
22064,0.04311406733010301
22065,0.041701383056805603
22066,0.040223660152951944
22067,0.038692915036043225
22068,0.037122711730730264
22069,0.035527794011736065
22070,0.033923571010754126
22071,0.03232566619624764
22072,0.030749518067349334
22073,0.029210410863821114
22074,0.02772405954100845
22075,0.026306952792343484
22076,0.024975904678417465
22077,0.02374734363966919
22078,0.02263680652777876
22079,0.021658404587932317
22080,0.02082417002366088
22081,0.020143370279966235
22082,0.019621686075088376
22083,0.019260430709000635
22084,0.019056125775935698
22085,0.019000479466972326
22086,0.019080695278994832
22087,0.01927980665863474
22088,0.019577010107591955
22089,0.019948590739031092
22090,0.020369329001592867
22091,0.020813444275238333
22092,0.02125496500488534
22093,0.02166829235635361
22094,0.022029395517444057
22095,0.02231744119753943
22096,0.022516060941202953
22097,0.02261343935273907
22098,0.02260163507096139
22099,0.022476244953693603
22100,0.022236381979587973
22101,0.021884066757408567
22102,0.021422915431795104
22103,0.020856771793756747
22104,0.020188762339558918
22105,0.01942118596210555
22106,0.018556351866337917
22107,0.0175974372812032
22108,0.01654857566159508
22109,0.015414760803203717
22110,0.014202111385099685
22111,0.012917933080108503
22112,0.011570220850746852
22113,0.010167323990423777
22114,0.008718368232871115
22115,0.007233827658742667
22116,0.005725383142067244
22117,0.0042051496935477176
22118,0.002684949208935957
22119,0.001176129277961571
22120,-0.0003100468444249913
22121,-0.0017619967902224865
22122,-0.0031680488209302306
22123,-0.004517206504293417
22124,-0.005799787800572477
22125,-0.00700763402710243
22126,-0.00813395888315691
22127,-0.009172789469283214
22128,-0.010118145663700591
22129,-0.010963382887947496
22130,-0.011700716885746443
22131,-0.01232069797253545
22132,-0.012811815494863339
22133,-0.013160577606881682
22134,-0.013352205654472026
22135,-0.013371924251944323
22136,-0.0132065055558065
22137,-0.012845561471049427
22138,-0.012282481486617175
22139,-0.011515180833715529
22140,-0.010546553998188943
22141,-0.00938438219271246
22142,-0.00804082892918519
22143,-0.006532075056790761
22144,-0.004878328545752592
22145,-0.0031036441722550245
22146,-0.0012350835598333972
22147,0.0006983135817643042
22148,0.0026662217184938893
22149,0.004637604792967957
22150,0.006581556601045212
22151,0.008468427452309727
22152,0.01027092007770913
22153,0.011964613955790434
22154,0.013527663021572076
22155,0.014940277374912447
22156,0.016184848132535665
22157,0.01724671274519552
22158,0.018115008802458196
22159,0.018783159329354204
22160,0.019248573535428963
22161,0.019511932383326408
22162,0.019577162885695568
22163,0.019452059965018025
22164,0.01914849976280004
22165,0.018682043751373646
22166,0.018071424565734216
22167,0.017337988680558098
22168,0.016504814544488364
22169,0.015595261353856959
22170,0.01463107626630855
22171,0.013630731642259416
22172,0.01260853604393339
22173,0.011574555437224273
22174,0.010535266276070553
22175,0.0094944715140084
22176,0.008453814664039726
22177,0.007413008656505276
22178,0.0063701049029425225
22179,0.005321653801493232
22180,0.004262914210339405
22181,0.0031883974084199306
22182,0.002092403305672721
22183,0.0009694942986996566
22184,-0.0001847187641572847
22185,-0.001373005866371851
22186,-0.0025966963603596847
22187,-0.0038557662419855037
22188,-0.005148235973543773
22189,-0.006469603259551281
22190,-0.007812775472089348
22191,-0.009168199445609386
22192,-0.010524103271797345
22193,-0.011866938432689931
22194,-0.013181907662185162
22195,-0.0144534230859862
22196,-0.015665453676713455
22197,-0.01680194503282042
22198,-0.0178474077520731
22199,-0.01878736653663143
22200,-0.019608487795021723
22201,-0.020298648790413883
22202,-0.02084722949806723
22203,-0.021245713701928015
22204,-0.021488545741141236
22205,-0.021573871225531394
22206,-0.021503648167237738
22207,-0.0212832450687645
22208,-0.020921228996078418
22209,-0.02042974894614421
22210,-0.019825174186200792
22211,-0.019128112092863983
22212,-0.01836242309661158
22213,-0.017553971551863494
22214,-0.016729597926301947
22215,-0.01591559225443148
22216,-0.015135412699896341
22217,-0.01440786618598213
22218,-0.013746739622057374
22219,-0.013161647852116185
22220,-0.012659493548617534
22221,-0.012245913444877923
22222,-0.01192615665416013
22223,-0.011705417148950936
22224,-0.011589042894270821
22225,-0.011582720435952744
22226,-0.011692352772829394
22227,-0.011923622645011896
22228,-0.012281692506873538
22229,-0.012771332532959711
22230,-0.013397224298238752
22231,-0.01416415100704613
22232,-0.015077161816780964
22233,-0.016141670075676177
22234,-0.017363365519717455
22235,-0.018748352322488865
22236,-0.020303716772747993
22237,-0.022037926642484874
22238,-0.023960813474787682
22239,-0.026083466733523422
22240,-0.028417761788171854
22241,-0.030975257849848697
22242,-0.03376623651930606
22243,-0.036799450636172536
22244,-0.04008236034627932
22245,-0.043621571070151924
22246,-0.04742310124707891
22247,-0.05149221776666603
22248,-0.05583294986018803
22249,-0.0604473839120596
22250,-0.0653348400864303
22251,-0.07049097530081631
22252,-0.07590658636246879
22253,-0.0815662010488987
22254,-0.08744716923500101
22255,-0.09351986390308793
22256,-0.09974899212286299
22257,-0.10609550667349978
22258,-0.11251842881138369
22259,-0.11897627925337545
22260,-0.12542841565991975
22261,-0.1318363402221327
22262,-0.13816430395253732
22263,-0.1443790713308743
22264,-0.15044981420490444
22265,-0.15634864447326052
22266,-0.1620512278643157
22267,-0.16753702296742118
22268,-0.17278921890681465
22269,-0.17779441743027416
22270,-0.18254216418038433
22271,-0.18702459315269024
22272,-0.19123613263382747
22273,-0.19517329321491694
22274,-0.19883487490697346
22275,-0.20222246596376978
22276,-0.2053408174700569
22277,-0.2081980081767114
22278,-0.21080523849491556
22279,-0.21317594883803065
22280,-0.21532467678727715
22281,-0.21726659913774637
22282,-0.2190176857764597
22283,-0.2205943392686446
22284,-0.22201227776879023
22285,-0.22328560431865777
22286,-0.22442640309466633
22287,-0.22544441768339293
22288,-0.2263468732114507
22289,-0.22713879412253174
22290,-0.2278236168727019
22291,-0.22840374842467268
22292,-0.22888105268251388
22293,-0.22925725194695187
22294,-0.22953422391790027
22295,-0.22971451721409233
22296,-0.22980224364966148
22297,-0.22980378141292612
22298,-0.22972793548923096
22299,-0.2295858729709452
22300,-0.2293907629779332
22301,-0.22915689356537353
22302,-0.22889862946964076
22303,-0.22862944001232766
22304,-0.2283608886841765
22305,-0.2281018503496711
22306,-0.2278584295851441
22307,-0.22763450076781022
22308,-0.22743226062804775
22309,-0.22725224148375567
22310,-0.22709275498212447
22311,-0.22694936962415818
22312,-0.22681504402588132
22313,-0.2266810033293882
22314,-0.22653796618251054
22315,-0.22637697577852395
22316,-0.22618931292840058
22317,-0.22596580360265528
22318,-0.22569607180374607
22319,-0.2253680105173722
22320,-0.22496777069727883
22321,-0.22448025275669073
22322,-0.22388962586727332
22323,-0.22317976788770413
22324,-0.2223348954897036
22325,-0.2213403594383236
22326,-0.22018348604113513
22327,-0.2188543842174217
22328,-0.21734621065249796
22329,-0.21565469623457129
22330,-0.21377797426991152
22331,-0.21171758553348488
22332,-0.20947973688580118
22333,-0.20707528207665837
22334,-0.20451835038594157
22335,-0.20182466144967753
22336,-0.19900998049172353
22337,-0.19608847401276464
22338,-0.19307112541503146
22339,-0.18996484023711774
22340,-0.1867725779859098
22341,-0.18349428062461481
22342,-0.1801280567919296
22343,-0.17667122471331814
22344,-0.17312120528925456
22345,-0.16947639420367283
22346,-0.1657369092166302
22347,-0.16190509286888632
22348,-0.1579859954180733
22349,-0.15398772472840977
22350,-0.14992104759965458
22351,-0.14579851072674788
22352,-0.14163408901281926
22353,-0.1374432313867605
22354,-0.1332424636574804
22355,-0.1290488172362471
22356,-0.12487971084079655
22357,-0.12075295082160314
22358,-0.11668623710050478
22359,-0.11269611014364245
22360,-0.10879687781515007
22361,-0.10500022095209906
22362,-0.10131541594469179
22363,-0.09774937735640234
22364,-0.09430629713748187
22365,-0.09098747961044805
22366,-0.08779177998633962
22367,-0.08471650151516721
22368,-0.0817581360404413
22369,-0.0789123128558173
22370,-0.07617326245175676
22371,-0.07353365955822838
22372,-0.07098486761912937
22373,-0.06851699497117705
22374,-0.0661186664440046
22375,-0.06377669783820049
22376,-0.0614757996674556
22377,-0.05919866959454256
22378,-0.056926691236105234
22379,-0.054640945218510525
22380,-0.05232330419261787
22381,-0.04995773702497654
22382,-0.047531848687661776
22383,-0.04503832325442214
22384,-0.04247564021740839
22385,-0.03984764683080258
22386,-0.037162523798803374
22387,-0.03443216073063747
22388,-0.03167206170291555
22389,-0.02890097086458046
22390,-0.02613976138568115
22391,-0.023409948533546804
22392,-0.02073239554309364
22393,-0.01812644277655176
22394,-0.015609295288418507
22395,-0.013195521983254549
22396,-0.010896716003295531
22397,-0.008721352559327253
22398,-0.0066750175674243906
22399,-0.004761070900106967
22400,-0.0029811211435378376
22401,-0.0013347945703311992
22402,0.00018083883113877153
22403,0.001571642634438597
22404,0.002846326229337365
22405,0.004015900045553342
22406,0.005093129168114857
22407,0.006092362690042166
22408,0.007029526411094805
22409,0.00792192892829005
22410,0.008787900767106685
22411,0.009646427673023344
22412,0.010516555698137864
22413,0.011416359717998842
22414,0.012361822247434942
22415,0.013365848908924102
22416,0.014437400712757203
22417,0.015581132123676886
22418,0.016797647709090258
22419,0.018083730190517344
22420,0.019432404705651732
22421,0.020833362301707334
22422,0.02227365895641302
22423,0.023738253003222687
22424,0.025210369083004225
22425,0.026671853225673045
22426,0.02810375251058249
22427,0.029487359455316622
22428,0.03080558410343727
22429,0.032044276526161916
22430,0.03319313816089545
22431,0.03424591305000382
22432,0.03519998865087033
22433,0.03605585556246246
22434,0.03681648487098986
22435,0.03748657178463086
22436,0.038071915614207114
22437,0.03857903667716847
22438,0.03901511857329032
22439,0.03938855510066892
22440,0.039709800252534705
22441,0.03999193596818479
22442,0.04025079447042065
22443,0.040504499705877633
22444,0.04077246634040442
22445,0.041074347048765183
22446,0.041429176829344744
22447,0.04185441281797303
22448,0.04236467564690809
22449,0.042970788696978277
22450,0.04367979147317447
22451,0.044495422762616435
22452,0.045417982825655984
22453,0.04644339839810627
22454,0.04756251208319154
22455,0.04876167527154271
22456,0.05002441274445511
22457,0.05133292673052994
22458,0.05266896198761947
22459,0.05401472539748374
22460,0.05535425697648781
22461,0.05667460561496172
22462,0.057966105806702334
22463,0.05922187177152685
22464,0.06043695472788074
22465,0.06160754068843949
22466,0.0627306272349218
22467,0.06380411461355417
22468,0.06482676183054847
22469,0.065797871422414
22470,0.06671705742224568
22471,0.06758437090800411
22472,0.06840051832969353
22473,0.06916670904933273
22474,0.069884289656327
22475,0.07055462179561592
22476,0.07117906657219297
22477,0.07175862811273193
22478,0.07229330004256844
22479,0.0727816110223428
22480,0.0732207968734039
22481,0.07360761296336751
22482,0.0739393158776424
22483,0.07421428385463087
22484,0.0744322799143896
22485,0.07459469743768414
22486,0.07470472387775055
22487,0.07476703185335289
22488,0.07478703631580631
22489,0.07477024979600774
22490,0.07472206889679614
22491,0.07464780415810027
22492,0.0745526851119601
22493,0.0744418507398184
22494,0.07432051581900925
22495,0.07419451471865599
22496,0.07407110404028543
22497,0.07395959685749177
22498,0.07387170931305391
22499,0.07382162592438377
22500,0.07382545461660256
22501,0.07390003747332628
22502,0.0740614924235759
22503,0.07432359454014668
22504,0.07469617683048232
22505,0.07518426928602075
22506,0.07578835899304256
22507,0.07650513316049401
22508,0.07732798255464372
22509,0.07824736773127311
22510,0.07925147085729242
22511,0.08032710884691101
22512,0.0814604751579605
22513,0.08263741284347188
22514,0.08384342899622398
22515,0.08506389173885183
22516,0.0862844741956112
22517,0.08749149192756901
22518,0.0886720314089111
22519,0.08981422367059393
22520,0.0909076426303421
22521,0.09194339878126387
22522,0.09291411516932502
22523,0.09381418921227469
22524,0.09464000612054607
22525,0.09538975341199316
22526,0.09606311602558479
22527,0.09666123632005125
22528,0.09718707370918675
22529,0.09764590516266815
22530,0.09804555198055002
22531,0.0983964110570861
22532,0.0987115078365602
22533,0.09900623089226077
22534,0.09929742636372886
22535,0.09960207877275651
22536,0.09993584630837214
22537,0.10031173262042954
22538,0.10073933915974348
22539,0.10122467613133147
22540,0.10177000102168197
22541,0.10237347379848384
22542,0.10302900311519564
22543,0.1037265215016596
22544,0.10445233673704715
22545,0.10518933052922697
22546,0.1059174497417783
22547,0.10661488311625174
22548,0.1072596906226796
22549,0.10783120947059426
22550,0.10831044494103198
22551,0.10867947952450854
22552,0.10892097346767898
22553,0.10901838910555378
22554,0.1089565522877088
22555,0.10872214053690026
22556,0.10830395662083726
22557,0.1076928553606607
22558,0.10688141073300828
22559,0.1058634400446535
22560,0.10463352011300242
22561,0.10318687422918325
22562,0.1015195834332781
22563,0.0996286322520981
22564,0.09751167789658553
22565,0.095166753941696
22566,0.09259208755431138
22567,0.089786044764578
22568,0.08674700352771568
22569,0.08347304112932538
22570,0.07996150536635105
22571,0.0762087034939799
22572,0.07220987669618704
22573,0.06795905487588867
22574,0.06344854901506142
22575,0.05866867661216797
22576,0.053608288243978695
22577,0.04825609635790839
22578,0.04260242056739563
22579,0.036640967480308616
22580,0.030370650493900215
22581,0.02379738799386026
22582,0.01693532678351338
22583,0.009807012445235738
22584,0.00244250085655744
22585,-0.005122204552131384
22586,-0.012846674736895979
22587,-0.02068716016608013
22588,-0.02859774904993448
22589,-0.036531942001952075
22590,-0.04444423728795367
22591,-0.05229121598624459
22592,-0.060031909177775414
22593,-0.06762761124911706
22594,-0.075041664411142
22595,-0.08223957711244642
22596,-0.08918955957325542
22597,-0.09586331880179066
22598,-0.10223659843913319
22599,-0.10828921771104454
22600,-0.11400494561660605
22601,-0.11937138620965326
22602,-0.12437968034511333
22603,-0.12902398847005603
22604,-0.13330105404936982
22605,-0.13721020797704175
22606,-0.14075383750212145
22607,-0.14393778959962444
22608,-0.1467710549737379
22609,-0.1492649350620558
22610,-0.15143265443719647
22611,-0.15328961305648203
22612,-0.15485341026593563
22613,-0.15614317395604296
22614,-0.15717870787326532
22615,-0.15797996099047298
22616,-0.1585667015128991
22617,-0.15895807689343958
22618,-0.15917183503608598
22619,-0.1592232039767188
22620,-0.15912378422048884
22621,-0.15888091795748233
22622,-0.1584978600675303
22623,-0.15797480596519528
22624,-0.15731041303969923
22625,-0.15650332666166197
22626,-0.1555535072320205
22627,-0.1544631939340111
22628,-0.1532371656207331
22629,-0.15188226131254567
22630,-0.15040683320082365
22631,-0.14882082070004143
22632,-0.14713615380270417
22633,-0.1453667252978626
22634,-0.1435277262056121
22635,-0.14163470995980112
22636,-0.13970296101072438
22637,-0.13774738693602465
22638,-0.13578240387185778
22639,-0.13382133992609516
22640,-0.1318757218523061
22641,-0.1299550616900863
22642,-0.12806729407855036
22643,-0.12621949622464615
22644,-0.12441830328209545
22645,-0.12266979543567522
22646,-0.12097903338253069
22647,-0.11934937410481863
22648,-0.11778171546641061
22649,-0.11627393503901286
22650,-0.11482061761989693
22651,-0.11341299717724815
22652,-0.11203921264674446
22653,-0.11068498624601483
22654,-0.10933441076477968
22655,-0.10797052804650008
22656,-0.10657592006075275
22657,-0.10513351592371178
22658,-0.10362730002486921
22659,-0.10204263619707357
22660,-0.10036646864713802
22661,-0.09858772418185986
22662,-0.09669765091680976
22663,-0.09468976674359011
22664,-0.09255974356536131
22665,-0.09030558943466444
22666,-0.08792794212258935
22667,-0.08543015002156526
22668,-0.08281791878528141
22669,-0.08009869020729325
22670,-0.07728121414673444
22671,-0.07437528304235919
22672,-0.07139153862239352
22673,-0.06834154749121427
22674,-0.06523785561501101
22675,-0.06209366312374171
