Time (Seconds),Amplitude (Volts) [Filtered 0.3-10.0Hz]
13993,-0.020199397914678466
13994,-0.020370926380629376
13995,-0.020512650002623933
13996,-0.020637569999382925
13997,-0.020755982818190903
13998,-0.02087046960611104
13999,-0.020973037986517125
14000,-0.02104666616180206
14001,-0.021071576541655722
14002,-0.021033307677186912
14003,-0.020928406942188282
14004,-0.02076520800892859
14005,-0.02056022160314165
14006,-0.02033251526072044
14007,-0.020098017437077377
14008,-0.01986472272898837
14009,-0.01963002709062351
14010,-0.019382053637023937
14011,-0.01910545972791232
14012,-0.01878915207401282
14013,-0.018431859790290724
14014,-0.018043042620723135
14015,-0.01763961644257027
14016,-0.017240854878958038
14017,-0.01686319591002554
14018,-0.016515529950008587
14019,-0.016196177459626614
14020,-0.0158938461005366
14021,-0.015593460177964251
14022,-0.015284149775560116
14023,-0.01496471696083999
14024,-0.014643826033410119
14025,-0.014335837088747989
14026,-0.014055136468539144
14027,-0.013811098506018546
14028,-0.013604397257076632
14029,-0.013425369345447188
14030,-0.013255875159422444
14031,-0.01307506746487519
14032,-0.01286683785589508
14033,-0.012625380946261824
14034,-0.012356432229621147
14035,-0.012074030130019463
14036,-0.0117945184864735
14037,-0.01153012308872882
14038,-0.011283831660336852
14039,-0.01104684415155631
14040,-0.010800354441766212
14041,-0.010522289212267768
14042,-0.010195978698288144
14043,-0.009816003887871474
14044,-0.009388855500057362
14045,-0.008929266982089611
14046,-0.00845451792750812
14047,-0.007978741915001702
14048,-0.007508272953776314
14049,-0.007039081587756362
14050,-0.006558252674126186
14051,-0.006050095922073781
14052,-0.005503959664307872
14053,-0.0049194444346187275
14054,-0.0043069230954235985
14055,-0.0036842882293250875
14056,-0.003072029863530338
14057,-0.0024880958010307904
14058,-0.001943258934522421
14059,-0.001438187709463139
14060,-0.0009642490615200446
14061,-0.0005088930143688211
14062,-6.333781878058338e-05
14063,0.0003716410122322662
14064,0.0007849118367590294
14065,0.0011591320545226748
14066,0.0014771805337432352
14067,0.0017281420225374895
14068,0.0019115144420483506
14069,0.0020388459805669844
14070,0.0021315965371244746
14071,0.0022148921521653615
14072,0.002309548227369373
14073,0.0024262456938426028
14074,0.002564096067537075
14075,0.002713221746700807
14076,0.0028598089303133855
14077,0.0029920602016471967
14078,0.0031056120571886572
14079,0.003206668458407924
14080,0.0033107257054088846
14081,0.0034364380988876975
14082,0.0035974644161510276
14083,0.0037964549223751037
14084,0.004023754473973794
14085,0.004260821446159706
14086,0.004486345614322698
14087,0.004682572440576506
14088,0.004840306436184901
14089,0.00496157231110952
14090,0.005058402109181933
14091,0.00514724613173971
14092,0.0052414595225473
14093,0.005345662987003504
14094,0.005454160126195004
14095,0.005553386156862706
14096,0.005627013273295794
14097,0.00566170011060829
14098,0.005651832547929995
14099,0.005602133725080141
14100,0.005526695184638745
14101,0.0054436749004736365
14102,0.005367827859786298
14103,0.0053049820300948725
14104,0.005250913129182068
14105,0.005194092162934462
14106,0.0051203962209917355
14107,0.0050182060677308
14108,0.0048829937135681034
14109,0.00472017053936752
14110,0.0045442635173627765
14111,0.004373509712460028
14112,0.004221975526168747
14113,0.004093544740068546
14114,0.0039808413152561915
14115,0.0038688258883687876
14116,0.0037407858717560293
14117,0.0035845089726027363
14118,0.0033972170213648753
14119,0.003187767763754899
14120,0.002974446297779031
14121,0.002778396521788828
14122,0.002615462146601511
14123,0.002490281620799171
14124,0.0023949722798723427
14125,0.002312211412023219
14126,0.0022211949885601297
14127,0.002104764063392781
14128,0.0019556678900696633
14129,0.0017795230812900041
14130,0.0015927032783084145
14131,0.0014156299924549956
14132,0.001264314728170124
14133,0.0011439313388588463
14134,0.0010472043662873446
14135,0.0009579006161862186
14136,0.000857383607887242
14137,0.0007316342955612483
14138,0.0005768984721863345
14139,0.0004023556943999543
14140,0.00022800065219568278
14141,7.768443565802936e-05
14142,-2.9483169374605774e-05
14143,-8.523599779776576e-05
14144,-9.379531810489207e-05
14145,-6.92590073907073e-05
14146,-2.9931259775411653e-05
14147,8.409585005146776e-06
14148,3.8258404892741946e-05
14149,6.34678765863584e-05
14150,9.782469909946044e-05
14151,0.00015875215968582865
14152,0.0002591759738877382
14153,0.0004018433947589788
14154,0.0005783147532453558
14155,0.0007722866381622293
14156,0.0009654784340668967
14157,0.0011440230915934352
14158,0.001303719923418786
14159,0.0014525176456363252
14160,0.0016085285664479343
14161,0.001793589823152755
14162,0.0020252345341262605
14163,0.002310960144977999
14164,0.0026468753228587327
14165,0.003020279296580352
14166,0.0034146065988650727
14167,0.003815130881593137
14168,0.004213875566876648
14169,0.004612141496761647
14170,0.005019208748658057
14171,0.00544684307062147
14172,0.005901628054881927
14173,0.006379322117120545
14174,0.0068643619202738305
14175,0.007333779588704565
14176,0.007762839595338182
14177,0.008130732860466441
14178,0.00842556017483639
14179,0.00864733799333715
14180,0.008807120566067358
14181,0.008921434845581371
14182,0.009004272609533874
14183,0.009060925177188628
14184,0.00908652852213555
14185,0.009068978318155096
14186,0.008994227647852472
14187,0.008852273511686872
14188,0.008642306146888455
14189,0.008374994046314579
14190,0.008070239440483021
14191,0.007750919674196163
14192,0.007435499397045124
14193,0.007132744577027031
14194,0.006840363075492307
14195,0.0065476934694086355
14196,0.006241123169669216
14197,0.005910119358061553
14198,0.0055519815486941345
14199,0.005173802884437381
14200,0.004790254329287845
14201,0.004417381694056677
14202,0.004065509074749159
14203,0.003735142247983438
14204,0.0034173745186827885
14205,0.0030978153887059956
14206,0.0027621471788831066
14207,0.0024014218176191485
14208,0.0020161070891678056
14209,0.001618086863506031
14210,0.0012286834385781863
14211,0.0008720462820147436
14212,0.000567066246310627
14213,0.0003220557456693543
14214,0.00013387359887755568
14215,-9.107838126904202e-06
14216,-0.00012161979520415459
14217,-0.0002156070540644422
14218,-0.00029559366270279306
14219,-0.00035675285695912834
14220,-0.00038696389754595524
14221,-0.0003725379421959502
14222,-0.00030493725116607657
14223,-0.00018513053341790483
14224,-2.3789006200605756e-05
14225,0.00016208656960546575
14226,0.0003544061545581812
14227,0.0005395855698304194
14228,0.0007129242997599306
14229,0.000880017240413318
14230,0.0010542450003763939
14231,0.0012508598496514057
14232,0.0014796655508250416
14233,0.0017395533066087263
14234,0.0020176333975312033
14235,0.0022929325619860975
14236,0.0025426723486076056
14237,0.0027492497979542513
14238,0.002906125215276649
14239,0.003020236527557754
14240,0.003109027338978995
14241,0.003192809450016236
14242,0.0032861442713101397
14243,0.0033925334559251
14244,0.003504383570135852
14245,0.003606934591772333
14246,0.0036835886363571707
14247,0.003721137213210525
14248,0.003714387445682928
14249,0.0036689603869844273
14250,0.0035999299852196927
14251,0.003525713303522663
14252,0.003460266513923878
14253,0.0034076065747727534
14254,0.003360662669109201
14255,0.0033044314383322494
14256,0.003221987151547655
14257,0.003100967756131899
14258,0.002938444681248653
14259,0.00274270246114878
14260,0.0025306111956391736
14261,0.0023208986954768914
14262,0.002126703906736749
14263,0.0019514079233313606
14264,0.0017889822431250563
14265,0.0016276619441534736
14266,0.0014552541064604876
14267,0.0012644742118648696
14268,0.0010570295283460905
14269,0.0008452041274704435
14270,0.0006492948297612518
14271,0.0004908799520285077
14272,0.0003852355327847211
14273,0.0003368698903357379
14274,0.00033934556635674363
14275,0.0003782610140125194
14276,0.0004362399544020662
14277,0.0004988721706418353
14278,0.0005600349570063327
14279,0.0006246531609124598
14280,0.0007068814831654334
14281,0.0008233556947007939
14282,0.0009845687770465962
14283,0.00118915363364013
14284,0.0014237210456378734
14285,0.0016670694769095494
14286,0.0018961240097383086
14287,0.002092180492049862
14288,0.002246475648299309
14289,0.002362981856070169
14290,0.0024562989871106484
14291,0.0025447949471423736
14292,0.002642067013495533
14293,0.002751083008490165
14294,0.002863474909139188
14295,0.002962842687639117
14296,0.0030296613428576614
14297,0.003046758317146666
14298,0.0030047135951093416
14299,0.002905129094127111
14300,0.0027592784839114734
14301,0.002581982374727349
14302,0.0023839490616977058
14303,0.002166927481587526
14304,0.0019237101368920874
14305,0.0016418403486653695
14306,0.0013087845501377321
14307,0.0009171863545100359
14308,0.00046939844931369844
14309,-2.053794680742689e-05
14310,-0.0005298158019694447
14311,-0.001034239564207866
14312,-0.0015161005548416644
14313,-0.0019688008979666717
14314,-0.0023971506934789884
14315,-0.002813797862494231
14316,-0.0032329762249597277
14317,-0.003663762521938627
14318,-0.004105026881887411
14319,-0.004543725141632574
14320,-0.004957964834048097
14321,-0.005324351105102726
14322,-0.005626132747606455
14323,-0.00585833190683463
14324,-0.006028256224002754
14325,-0.006151767642069211
14326,-0.006246940345781663
14327,-0.006327542118104476
14328,-0.006398339796131557
14329,-0.0064535515243210155
14330,-0.006479677501763889
14331,-0.006462214337807703
14332,-0.006392818225145518
14333,-0.006273298952176138
14334,-0.006115450767035955
14335,-0.005937712421144645
14336,-0.0057599608426401605
14337,-0.005597617398276812
14338,-0.005456502273878221
14339,-0.0053304674299978
14340,-0.005203778118610061
14341,-0.005058253239562263
14342,-0.004881959807502318
14343,-0.004674794152836882
14344,-0.004448682764358125
14345,-0.004223885277733313
14346,-0.004023804364331932
14347,-0.0038693008129495467
14348,-0.003773142807781971
14349,-0.0037364072920481133
14350,-0.0037492400650800174
14351,-0.0037966937563089368
14352,-0.003867033403146975
14353,-0.003957883380186904
14354,-0.004077283531825363
14355,-0.004240200444373385
14356,-0.004462586514311933
14357,-0.00475483874151386
14358,-0.005116555788011296
14359,-0.005534736861762927
14360,-0.005986831448755862
14361,-0.00644788154178139
14362,-0.006898530340358594
14363,-0.007330051943290861
14364,-0.007744402344014467
14365,-0.008150041859780289
14366,-0.00855596659626866
14367,-0.008966060177795453
14368,-0.009374701309321179
14369,-0.009764862494623789
14370,-0.0101108517424715
14371,-0.010385850689003193
14372,-0.010570516554733681
14373,-0.010658215371740961
14374,-0.010655335807095996
14375,-0.010577549068109836
14376,-0.010443777622198214
14377,-0.01026998019749926
14378,-0.010064171201920557
14379,-0.009823871869172638
14380,-0.009538175159350645
14381,-0.009194566828463193
14382,-0.008786202447790475
14383,-0.008315312219306167
14384,-0.007792367822241326
14385,-0.007232671015541932
14386,-0.006651655197028652
14387,-0.006059927988509961
14388,-0.0054591472848730125
14389,-0.004840285724073858
14390,-0.004186209879209143
14391,-0.0034785664461373846
14392,-0.0027055639158075195
14393,-0.001866492970109387
14394,-0.0009715875254766009
14395,-3.856145750621466e-05
14396,0.0009124108305777904
14397,0.00186408668696915
14398,0.0028066022302403806
14399,0.0037389956509098514
14400,0.004666535221018545
14401,0.005594811199739889
14402,0.006523235011737977
14403,0.007441098937357754
14404,0.008328093324829092
14405,0.009158335911028905
14406,0.009905815403138283
14407,0.010550222116776762
14408,0.011082142281313061
14409,0.01150523293887248
14410,0.011833413202053293
14411,0.012083783914486742
14412,0.012268330157663545
14413,0.012388336544843772
14414,0.01243424094311649
14415,0.012390390510795575
14416,0.012241824962783603
14417,0.011980599378734863
14418,0.011610266099736408
14419,0.011147100888900101
14420,0.010616758319456413
14421,0.010047039318278913
14422,0.009460135541483963
14423,0.008868206324415276
14424,0.008273811521978284
14425,0.00767421567154468
14426,0.007067313967665496
14427,0.00645653378847594
14428,0.005853315334595997
14429,0.005277012783631743
14430,0.004751506383987583
14431,0.004298701354381467
14432,0.003931971491810496
14433,0.0036529116458788144
14434,0.003452267232363035
14435,0.0033142537757914537
14436,0.003222624136866165
14437,0.0031662504378129988
14438,0.0031428465684464496
14439,0.0031599160196200413
14440,0.003231586774623209
14441,0.00337174173973959
14442,0.0035866310074129173
14443,0.0038704271051159447
14444,0.004205384747811558
14445,0.0045663254672234635
14446,0.004927514322571927
14447,0.005269230778816434
14448,0.005582107678143784
14449,0.005868262134937767
14450,0.0061384812950211545
14451,0.006405760151133638
14452,0.006677754824663422
14453,0.006952062412267611
14454,0.007216527554757412
14455,0.0074533870601470814
14456,0.007644810477484018
14457,0.007778378514622264
14458,0.007851226124391267
14459,0.007871001373618063
14460,0.007852655543060316
14461,0.007812015960402934
14462,0.0077586674746110956
14463,0.0076914544622332945
14464,0.007598654358765388
14465,0.007462015022932953
14466,0.007262501400353904
14467,0.006986220071581329
14468,0.006629364231354586
14469,0.006200333495111921
14470,0.005717225133508784
14471,0.005201094572691528
14472,0.004668028861939795
14473,0.004123906668985536
14474,0.0035642289139899276
14475,0.002978539985494461
14476,0.002356732814017344
14477,0.0016946335684036116
14478,0.0009978053100762126
14479,0.0002826445120436374
14480,-0.000426745541888628
14481,-0.0011052790481467453
14482,-0.0017335741798340607
14483,-0.002301491310327
14484,-0.002807993189461397
14485,-0.0032579615527273988
14486,-0.0036571585325997523
14487,-0.004007249117662311
14488,-0.0043024173169353315
14489,-0.004528725413533997
14490,-0.004667366416424076
14491,-0.004701153821685872
14492,-0.004621194233797116
14493,-0.0044306671347326765
14494,-0.004144460571656911
14495,-0.0037851122132633733
14496,-0.003376735122081379
14497,-0.0029390296994172027
14498,-0.002482798326057852
14499,-0.002008288215326545
14500,-0.0015080014111667544
14501,-0.0009735692775192676
14502,-0.00040306567444707347
14503,0.00019517109244736796
14504,0.0008033668819590828
14505,0.0013985477419590614
14506,0.001958360564325219
14507,0.002466801853278616
14508,0.002918257984730996
14509,0.0033182029928370185
14510,0.0036796617239558942
14511,0.004016552978451812
14512,0.004336688108073561
14513,0.004637648177156083
14514,0.00490758576024797
14515,0.005130010385382747
14516,0.005289692112104867
14517,0.0053777929472058695
14518,0.005395375090511279
14519,0.00535396687622439
14520,0.005272142454963778
14521,0.005168799355622517
14522,0.005055586616374622
14523,0.004932046550767804
14524,0.0047860598053725174
14525,0.004598906227503523
14526,0.00435208922816747
14527,0.0040336692558289805
14528,0.0036427426641394405
14529,0.0031905630737573405
14530,0.002697294817511267
14531,0.002185324145076422
14532,0.00167205269561106
14533,0.0011654541839920993
14534,0.0006639711970825956
14535,0.00016007752634775488
14536,-0.0003543646403149747
14537,-0.0008827297992987325
14538,-0.0014194089551427774
14539,-0.0019482211042290039
14540,-0.0024453931313256788
14541,-0.00288671791590163
14542,-0.00325495992315814
14543,-0.00354369350238173
14544,-0.0037567327711565787
14545,-0.003904202808388745
14546,-0.003996981622174262
14547,-0.004041403916607713
14548,-0.004035548928108711
14549,-0.003968462091942051
14550,-0.003823747505735939
14551,-0.003586668630528985
14552,-0.0032510827664146143
14553,-0.0028227241546652892
14554,-0.0023177833391747754
14555,-0.0017580619219143055
14556,-0.0011652365767824294
14557,-0.0005562032262429184
14558,6.008346356506204e-05
14559,0.000683738856247066
14560,0.0013214595740060294
14561,0.0019802419257015738
14562,0.0026602456372484375
14563,0.0033507669687548227
14564,0.0040310516972096805
14565,0.00467479435310948
14566,0.005256254676020157
14567,0.005756472334997203
14568,0.006168206644770204
14569,0.006497572025190828
14570,0.006760677048945893
14571,0.006975842800614191
14572,0.007154627012235905
14573,0.007296178159523411
14574,0.007387556405276395
14575,0.0074086612453297725
14576,0.007338934524606827
14577,0.0071641051402467045
14578,0.006881355836746445
14579,0.006500833429428342
14580,0.0060423913121078355
14581,0.005528506163542635
14582,0.004976394602324399
14583,0.004393109411501608
14584,0.0037754874909669443
14585,0.003114067462720865
14586,0.002399055706571901
14587,0.0016264579613088283
14588,0.0008026439381642334
14589,-5.439487943004412e-05
14590,-0.000918512639895669
14591,-0.0017626588645854085
14592,-0.0025662128449062817
14593,-0.0033190791876205016
14594,-0.0040215827137525025
14595,-0.004680781142582728
14596,-0.005304756500007539
14597,-0.005896786387386681
14598,-0.006450757857411035
14599,-0.006949547956393281
14600,-0.00736857249871813
14601,-0.007683897490659556
14602,-0.00788049709615242
14603,-0.007956492545891194
14604,-0.00792225808955586
14605,-0.007795452476094953
14606,-0.00759435852052726
14607,-0.007332213944989821
14608,-0.007013749918117421
14609,-0.00663452303539679
14610,-0.0061842820859430245
14611,-0.005653923535016367
14612,-0.00504244458910091
14613,-0.004360140481344129
14614,-0.0036270747651111135
14615,-0.002868317681374596
14616,-0.002108143227717618
14617,-0.0013647012473032493
14618,-0.0006459568879948166
14619,5.169999241369473e-05
14620,0.0007402946198154432
14621,0.0014328857886783115
14622,0.002135602538237734
14623,0.002843261890693969
14624,0.003539891429156247
14625,0.004202653405878272
14626,0.004807562268132616
14627,0.005336115456000639
14628,0.005780847008915907
14629,0.006146765032405401
14630,0.006447496904770981
14631,0.006698037811045406
14632,0.006907376467789972
14633,0.007074132682858857
14634,0.0071868013314491655
14635,0.007227632988001348
14636,0.007178261585173678
14637,0.007025837544612294
14638,0.006768182123144922
14639,0.00641564903795152
14640,0.005987906095762793
14641,0.005506428046396186
14642,0.0049862839546201635
14643,0.004431172979733907
14644,0.0038336201056168562
14645,0.003179662164209655
14646,0.0024557167981677937
14647,0.0016552373825066001
14648,0.0007833960526334401
14649,-0.00014186936974634572
14650,-0.0010936911502946543
14651,-0.0020437932659141483
14652,-0.002969895870387481
14653,-0.003859820671382103
14654,-0.004711577599215243
14655,-0.005529839111794852
14656,-0.006319968591384697
14657,-0.00708174913539414
14658,-0.007804870516719185
14659,-0.008468179613504101
14660,-0.009044162747399411
14661,-0.009507074669054556
14662,-0.00984045839751446
14663,-0.010040866341861491
14664,-0.010117176625339674
14665,-0.010086229945825129
14666,-0.009966404393956466
14667,-0.009771320634890588
14668,-0.00950536279201045
14669,-0.009162679534725651
14670,-0.008731067152401671
14671,-0.00819931824320767
14672,-0.007564093201788387
14673,-0.0068331868701730575
14674,-0.006024495566619421
14675,-0.005161871134389392
14676,-0.004269714243879846
14677,-0.0033677200819431513
14678,-0.002466846928899986
14679,-0.0015681037113233504
14680,-0.0006655549929281564
14681,0.00024709022862272204
14682,0.0011692197142316755
14683,0.0020891939587872463
14684,0.002985402622831191
14685,0.003830964259109221
14686,0.004599457123621112
14687,0.005270733360707858
14688,0.005835660979218505
14689,0.006297201533270117
14690,0.0066665937287313844
14691,0.006956269722048076
14692,0.007172682354287135
14693,0.0073124724273782105
14694,0.007363533604626769
14695,0.007309308153482817
14696,0.00713400571297391
14697,0.00682814514757857
14698,0.006393759414789612
14699,0.005846595046309743
14700,0.005212643589088265
14701,0.004519989440466053
14702,0.003790599836300612
14703,0.0030362557880720467
14704,0.0022594234330775217
14705,0.001457380056122851
14706,0.0006275235968267352
14707,-0.00022755657388576623
14708,-0.0010962245060978572
14709,-0.001956936805598987
14710,-0.002782324095100295
14711,-0.0035470821422380204
14712,-0.004235259892070849
