Time (Seconds),Amplitude (Volts) [Filtered 0.3-10.0Hz]
3560,-0.030103433895466783
3561,-0.029938559091662473
3562,-0.029702177699842524
3563,-0.02940252144728666
3564,-0.029048875699857767
3565,-0.028651468242092575
3566,-0.02822133790695598
3567,-0.02777018714200662
3568,-0.027310223412978594
3569,-0.02685399392965313
3570,-0.026414216739950865
3571,-0.026003609335922984
3572,-0.025634714358359022
3573,-0.02531972152482512
3574,-0.025070285826060593
3575,-0.02489734397979041
3576,-0.024810933300991503
3577,-0.024820018715196908
3578,-0.024932334059876927
3579,-0.02515424293077949
3580,-0.02549062237584975
3581,-0.025944770332178867
3582,-0.026518335678265684
3583,-0.027211268868908976
3584,-0.02802179160544847
3585,-0.0289463855349313
3586,-0.02997980182112491
3587,-0.031115094805762
3588,-0.03234368331353451
3589,-0.03365544216258773
3590,-0.03503882420515278
3591,-0.03648101032166702
3592,-0.03796808219476196
3593,-0.039485211294341675
3594,-0.04101685765642723
3595,-0.04254697340237907
3596,-0.04405920778533503
3597,-0.04553711212968274
3598,-0.046964343834848245
3599,-0.04832486839703903
3600,-0.04960315722175037
3601,-0.05078437733461926
3602,-0.05185456779771407
3603,-0.0528007975341032
3604,-0.05361130065328837
3605,-0.054275587824711494
3606,-0.05478453489208253
3607,-0.05513045190041175
3608,-0.055307136485712546
3609,-0.0553099150175695
3610,-0.0551356732195728
3611,-0.05478287581626086
3612,-0.05425157293904896
3613,-0.05354339035977293
3614,-0.05266150136248892
3615,-0.05161057980937662
3616,-0.05039673594897143
3617,-0.04902743802327997
3618,-0.04751142327437483
3619,-0.045858601402827284
3620,-0.04407995213384627
3621,-0.042187416869379324
3622,-0.04019378319443524
3623,-0.038112560887034144
3624,-0.035957849182188015
3625,-0.033744196892163306
3626,-0.031486458815800505
3627,-0.02919965300676206
3628,-0.02689882353649878
3629,-0.024598912299269818
3630,-0.02231464137626521
3631,-0.020060405060049344
3632,-0.017850168669906605
3633,-0.015697370548720415
3634,-0.01361482443250444
3635,-0.011614621353854278
3636,-0.009708032538703795
3637,-0.007905416513524374
3638,-0.006216134290099427
3639,-0.0046484758617481615
3640,-0.003209599554934729
3641,-0.001905483659575104
3642,-0.0007408880793025024
3643,0.0002806767513614337
3644,0.0011569755005250652
3645,0.001887067989318602
3646,0.0024713213986323652
3647,0.0029114108866714304
3648,0.00321030451672945
3649,0.003372229304821058
3650,0.0034026171848430993
3651,0.003308032193324189
3652,0.0030960823313437268
3653,0.0027753205559645777
3654,0.0023551388663276846
3655,0.0018456578165873243
3656,0.00125761180558797
3657,0.0006022290415563028
3658,-0.00010889521996433442
3659,-0.000863932552544508
3660,-0.0016509607486470054
3661,-0.002458104912687992
3662,-0.0032736749403531554
3663,-0.0040862939469986405
3664,-0.0048850135644634834
3665,-0.005659414337818778
3666,-0.006399691903719144
3667,-0.007096731454076584
3668,-0.007742173670902507
3669,-0.008328474694797425
3670,-0.008848960985326056
3671,-0.009297877768604162
3672,-0.009670428055341731
3673,-0.009962798782472379
3674,-0.010172171737859791
3675,-0.01029671905659183
3676,-0.010335585274984942
3677,-0.010288859341781538
3678,-0.01015754020596037
3679,-0.009943498684416066
3680,-0.009649436631663441
3681,-0.009278842553751221
3682,-0.008835941428065652
3683,-0.008325636234086376
3684,-0.0077534397506881375
3685,-0.007125397099888388
3686,-0.0064480015115269615
3687,-0.005728107097719575
3688,-0.004972842613222114
3689,-0.004189529144671857
3690,-0.0033856026982523133
3691,-0.0025685404085023355
3692,-0.0017457874627626602
3693,-0.000924681546664018
3694,-0.00011237281006724886
3695,0.0006842604939016148
3696,0.0014586983082785984
3697,0.0022048630758046382
3698,0.0029171976867766215
3699,0.0035907335105883464
3700,0.004221146763435477
3701,0.004804803703427937
3702,0.005338796937502725
3703,0.005820975693736885
3704,0.006249972013082375
3705,0.006625222887211476
3706,0.006946986266899231
3707,0.007216347398273938
3708,0.0074352116146424434
3709,0.00760628068414846
3710,0.007733011883565686
3711,0.007819561483918663
3712,0.007870716331754138
3713,0.007891817889308686
3714,0.007888682293968427
3715,0.00786751823695351
3716,0.007834842579461272
3717,0.007797392344284624
3718,0.0077620314462486725
3719,0.007735651327489306
3720,0.007725066314319049
3721,0.0077369064771769785
3722,0.007777512279306975
3723,0.007852835636136658
3724,0.00796835096790117
3725,0.008128977855335952
3726,0.008339014822859146
3727,0.008602082359301178
3728,0.00892107300704601
3729,0.009298107249142911
3730,0.009734495639230387
3731,0.01023070945995272
3732,0.010786363324743907
3733,0.011400212949154675
3734,0.012070169804003552
3735,0.012793332109561583
3736,0.013566029447373828
3737,0.014383876824930374
3738,0.01524183371356638
3739,0.016134264470313242
3740,0.017054998402502446
3741,0.01799738994633431
3742,0.018954381174246453
3743,0.019918569399706758
3744,0.0208822818356725
3745,0.021837657571862953
3746,0.02277673537932009
3747,0.023691544691705545
3748,0.02457419685353264
3749,0.025416974390936233
3750,0.02621241747912848
3751,0.026953408502902218
3752,0.02763325689096414
3753,0.028245786535262867
3754,0.028785426874071367
3755,0.029247306599913182
3756,0.029627346796081335
3757,0.029922348840974472
3758,0.030130072049956515
3759,0.030249296860520296
3760,0.030279871225239334
3761,0.030222740194263863
3762,0.030079960583780877
3763,0.029854703356668323
3764,0.029551245623908935
3765,0.029174952427346294
3766,0.02873224653613757
3767,0.028230563224393452
3768,0.02767828692016574
3769,0.02708466782929187
3770,0.0264597188115084
3771,0.025814095199948688
3772,0.025158962010777608
3773,0.02450585342222358
3774,0.023866528446986533
3775,0.02325282493547602
3776,0.02267651227648093
3777,0.02214914214288353
3778,0.021681896743012564
3779,0.02128543525809113
3780,0.020969741110384545
3781,0.02074397477607666
3782,0.02061633821089935
3783,0.02059395690925187
3784,0.02068278404391818
3785,0.020887528578350124
3786,0.0212116065976866
3787,0.02165711317687991
3788,0.022224811361308997
3789,0.022914135335271757
3790,0.0237232062903822
3791,0.02464886126829154
3792,0.025686696541851593
3793,0.02683112724100305
3794,0.02807546376133908
3795,0.029412003480800905
3796,0.030832134289852327
3797,0.032326445219083524
3798,0.03388483949825962
3799,0.035496646712933975
3800,0.037150732910900305
3801,0.03883560980494109
3802,0.040539545765566704
3803,0.04225068145403243
3804,0.04395715160552733
3805,0.045647212156825795
3806,0.047309369515040174
3807,0.04893250713619621
3808,0.05050600424736012
3809,0.05201984260446328
3810,0.05346469930276173
3811,0.05483202614211499
3812,0.05611411798885371
3813,0.05730417320973333
3814,0.058396348350184
3815,0.05938580723866182
3816,0.060268762510580866
3817,0.06104250603943866
3818,0.0617054245066477
3819,0.06225699749338227
3820,0.06269777771952445
3821,0.06302935558190631
3822,0.06325431193121286
3823,0.06337616333625684
3824,0.06339930285412636
3825,0.06332893715627366
3826,0.0631710186725549
3827,0.06293217004221062
3828,0.06261959808953788
3829,0.062240995804366976
3830,0.06180443298842291
3831,0.061318238570240165
3832,0.06079087921837632
3833,0.060230839158440554
3834,0.059646504948629955
3835,0.05904605691951416
3836,0.05843736690108681
3837,0.05782790056753267
3838,0.05722462271027849
3839,0.05663390500304258
3840,0.056061437889924126
3841,0.05551215032632585
3842,0.054990142375848226
3843,0.054498635543324306
3844,0.05403994419734324
3845,0.05361546904052639
3846,0.05322571113037515
3847,0.05287030319363528
3848,0.05254805436706037
3849,0.05225700508474279
3850,0.05199449029534507
3851,0.05175721092419825
3852,0.05154131472921502
3853,0.05134248779949451
3854,0.05115605676362152
3855,0.0509770997616164
3856,0.050800562184341
3857,0.05062137185603508
3858,0.05043454821017197
3859,0.05023530119617348
3860,0.05001911784933657
3861,0.04978183694518938
3862,0.04951971401514892
3863,0.049229479494643624
3864,0.04890839177992521
3865,0.048554285033165084
3866,0.04816560960105517
3867,0.04774146171052401
3868,0.047281599125741175
3869,0.046786440733666855
3870,0.046257050210319506
3871,0.04569510628126721
3872,0.0451028637440796
3873,0.04448310971728883
3874,0.04383911844321209
3875,0.04317460592492287
3876,0.04249368354190778
3877,0.04180080829952591
3878,0.04110072696286001
3879,0.040398412118117545
3880,0.03969898997494894
3881,0.03900766188872942
3882,0.03832962329704291
3883,0.03766998428467909
3884,0.03703369511613376
3885,0.03642547827557585
3886,0.035849766669407354
3887,0.03531064642917199
3888,0.03481180259677859
3889,0.03435646687401228
3890,0.0339473682224637
3891,0.03358668876991665
3892,0.033276028451586746
3893,0.03301638155117018
3894,0.03280812682548926
3895,0.032651030771124336
3896,0.032544261626579335
3897,0.032486410576889196
3898,0.03247551669077938
3899,0.032509093352554815
3900,0.032584155976794045
3901,0.03269725291880811
3902,0.03284450285509449
3903,0.033021641853320655
3904,0.033224081830349014
3905,0.033446979703104396
3906,0.03368531418131068
3907,0.03393396565423017
3908,0.03418779443826661
3909,0.03444171376686145
3910,0.03469075590393202
3911,0.03493013195038313
3912,0.03515528747086844
3913,0.03536195635928209
3914,0.03554621429853303
3915,0.0357045312939437
3916,0.0358338209155266
3917,0.035931482798312084
3918,0.03599543501310251
3919,0.0360241341579427
3920,0.036016583089971306
3921,0.035972328437004555
3922,0.03589145156426453
3923,0.03577455689335009
3924,0.03562276029559907
3925,0.035437678244495355
3926,0.03522141636266471
3927,0.034976554685209466
3928,0.034706126801987335
3929,0.03441359109860703
3930,0.03410279425889637
3931,0.03377792929134329
3932,0.03344349169960373
3933,0.03310423740313409
3934,0.03276514461086011
3935,0.03243137963908587
3936,0.032108264488754784
3937,0.03180124258735287
3938,0.03151583888842373
3939,0.03125761160623235
3940,0.03103209495764026
3941,0.030844734662733662
3942,0.030700819653596858
3943,0.03060541374861775
3944,0.030563289947400436
3945,0.030578868117590693
3946,0.030656155034192164
3947,0.0307986846677935
3948,0.031009456626891894
3949,0.031290871732117864
3950,0.031644665531621805
3951,0.032071842561335
3952,0.03257261552656203
3953,0.03314635369787272
3954,0.0337915435743611
3955,0.03450576277282745
3956,0.03528566596514027
3957,0.03612698025692454
3958,0.03702450712320027
3959,0.037972128950766904
3960,0.03896282005749625
3961,0.03998866407604889
3962,0.04104088091430089
3963,0.04210986646982091
3964,0.043185246867858317
3965,0.04425594686346374
3966,0.04531027009322768
3967,0.04633598777254622
3968,0.04732043251754353
3969,0.04825059516369195
3970,0.049113224364006676
3971,0.04989493070587399
3972,0.05058229829890117
3973,0.051162006680051234
3974,0.051620964415465584
3975,0.05194645350316101
3976,0.052126281456551474
3977,0.05214893653213061
3978,0.05200374136260333
3979,0.05168100127436555
3980,0.05117214541092987
3981,0.050469860715981724
3982,0.04956822001125886
3983,0.04846280527147802
3984,0.04715082576019836
3985,0.045631228529565006
3986,0.043904796746414926
3987,0.04197423009684234
3988,0.039844201521208655
3989,0.03752138578761126
3990,0.03501445761246208
3991,0.03233405947505398
3992,0.029492741032141258
3993,0.026504872457187734
3994,0.023386533110395215
3995,0.02015537533229892
3996,0.016830461714510712
3997,0.013432073630136546
3998,0.009981489461736631
3999,0.006500732851866384
4000,0.003012294061625072
4001,-0.00046116955334629065
4002,-0.003897145727150048
4003,-0.007273583035864164
4004,-0.010569201637957017
4005,-0.013763791827155609
4006,-0.016838494870793006
4007,-0.019776061980968193
4008,-0.02256108801915908
4009,-0.025180216498417205
4010,-0.02762231175031602
4011,-0.029878593315374916
4012,-0.031942727516330975
4013,-0.033810872393581506
4014,-0.03548167467693214
4015,-0.036956220555782106
4016,-0.03823794478199347
4017,-0.03933250436507198
4018,-0.04024762345250795
4019,-0.04099291502608066
4020,-0.041579683285254
4021,-0.042020708805606176
4022,-0.04233001757310001
4023,-0.042522635310020714
4024,-0.042614330009142894
4025,-0.042621347582864386
4026,-0.042560147151195556
4027,-0.04244714313930329
4028,-0.04229846083720492
4029,-0.042129710503922835
4030,-0.04195578283326998
4031,-0.041790666270927083
4032,-0.04164728508274831
4033,-0.04153735681174874
4034,-0.04147126881562398
4035,-0.04145797531341619
4036,-0.041504917903363886
4037,-0.04161797314046549
4038,-0.04180143015206041
4039,-0.04205799946102718
4040,-0.04238885158584696
4041,-0.0427936813615748
4042,-0.043270792187737536
4043,-0.04381719418418738
4044,-0.04442871150410027
4045,-0.045100096167947926
4046,-0.04582514785708498
4047,-0.04659684043394885
4048,-0.04740745618095049
4049,-0.048248727848078224
4050,-0.049111986880570294
4051,-0.049988314326923404
4052,-0.05086868975679615
4053,-0.05174413367292827
4054,-0.05260584038715075
4055,-0.053445300522732886
4056,-0.0542544143185745
4057,-0.055025598030116814
4058,-0.055751885618159934
4059,-0.05642702665011862
4060,-0.057045579316126145
4061,-0.057602995415146456
4062,-0.058095692973396826
4063,-0.058521112425804475
4064,-0.05887775397534428
4065,-0.05916519617274124
4066,-0.059384098008470415
4067,-0.05953618812014732
4068,-0.05962424473993206
4069,-0.059652068831421816
4070,-0.05962445093258028
4071,-0.0595471302223232
4072,-0.059426743063115836
4073,-0.059270758302794956
4074,-0.05908739792117796
4075,-0.058885543584075675
4076,-0.05867463151135679
4077,-0.058464539128097265
4078,-0.05826546694267862
4079,-0.05808781804459893
4080,-0.05794207592619638
4081,-0.05783867966349329
4082,-0.05778789460644452
4083,-0.05779967715497314
4084,-0.057883533884277256
4085,-0.05804837759396536
4086,-0.05830238492083967
4087,-0.05865286127882524
4088,-0.05910611873540639
4089,-0.059667371032311144
4090,-0.060340647712098114
4091,-0.06112872697920462
4092,-0.062033085385673876
4093,-0.06305386225803244
4094,-0.06418983790281607
4095,-0.06543842640435597
4096,-0.06679568543543872
4097,-0.0682563462873287
4098,-0.06981386694937083
4099,-0.07146050953211999
4100,-0.07318744102780714
4101,-0.07498485410176278
4102,-0.0768421031730303
4103,-0.07874785099593269
4104,-0.08069022218307394
4105,-0.08265696196258186
4106,-0.08463560013153014
4107,-0.08661362102005389
4108,-0.0885786399805119
4109,-0.0905185854623218
4110,-0.09242188351797849
4111,-0.09427763937885512
4112,-0.09607580943598273
4113,-0.09780735713183936
4114,-0.09946438782627437
4115,-0.10104025996190864
4116,-0.10252967194453536
4117,-0.1039287254168047
4118,-0.10523496580590522
4119,-0.10644740031537334
4120,-0.10756649230522843
4121,-0.10859412984428042
4122,-0.10953356579704056
4123,-0.11038932761034674
4124,-0.11116709696222797
4125,-0.11187356204686602
4126,-0.11251624766861261
4127,-0.11310332981514425
4128,-0.1136434416391195
4129,-0.1141454768474845
4130,-0.1146183947742896
4131,-0.11507102959279157
4132,-0.11551190500911013
4133,-0.11594905588084939
4134,-0.11638985940320487
4135,-0.11684088013936932
4136,-0.11730773443388655
4137,-0.11779498004343758
4138,-0.1183060359077496
4139,-0.11884313497792627
4140,-0.11940731037209493
4141,-0.11999841256093058
4142,-0.12061515356427466
4143,-0.12125517371400064
4144,-0.12191512728835899
4145,-0.12259078463735916
4146,-0.12327714953878952
4147,-0.1239685908910776
4148,-0.12465898724897923
4149,-0.12534188126299328
4150,-0.1260106392257015
4151,-0.12665860935548132
4152,-0.12727927191712674
4153,-0.12786637522935101
4154,-0.1284140538671697
4155,-0.12891692821054918
4156,-0.12937018703739023
4157,-0.1297696564344325
4158,-0.13011185855503363
4159,-0.130394062672919
4160,-0.13061432896235994
4161,-0.1307715432917948
4162,-0.1308654399872659
4163,-0.13089660958130872
4164,-0.13086648993176767
4165,-0.13077734114048534
4166,-0.1306322066074154
4167,-0.130434863670703
4168,-0.1301897672944309
4169,-0.12990198922801538
4170,-0.12957715338147863
4171,-0.1292213665203949
4172,-0.12884114250985487
4173,-0.12844331866037456
4174,-0.12803496415825688
4175,-0.1276232825315475
4176,-0.1272155118418965
4177,-0.12681882714820872
4178,-0.12644024942668616
4179,-0.12608656359914328
4180,-0.12576424603859165
4181,-0.12547939965876603
4182,-0.1252376933515243
4183,-0.12504430266304806
4184,-0.12490385003282989
4185,-0.12482034491004577
4186,-0.12479712575682345
4187,-0.1248368067799191
4188,-0.12494123202207304
4189,-0.12511143833144137
4190,-0.12534762710233016
4191,-0.12564914314218234
4192,-0.1260144582373222
4193,-0.12644115739648687
4194,-0.12692592725232277
4195,-0.12746454807842955
4196,-0.1280518925183936
4197,-0.12868193479021822
4198,-0.12934777356116117
4199,-0.13004167001460376
4200,-0.1307551003530122
4201,-0.13147881987402882
4202,-0.13220293460541488
4203,-0.13291697671877442
4204,-0.13360998140777844
4205,-0.13427056496569434
4206,-0.13488700561883593
4207,-0.1354473296167461
4208,-0.13593940480894473
4209,-0.13635104247738164
4210,-0.13667010598738794
4211,-0.1368846226966824
4212,-0.13698289443634737
4213,-0.13695360226971254
4214,-0.13678590296671472
4215,-0.1364695169478429
4216,-0.13599480944144282
4217,-0.13535286758473436
4218,-0.13453557591915166
4219,-0.13353569133143384
4220,-0.13234691647045654
4221,-0.13096396879621092
4222,-0.12938264152683923
4223,-0.1275998533481445
4224,-0.1256136856734621
4225,-0.1234234086994246
4226,-0.12102949950531217
4227,-0.118433656275547
4228,-0.11563881216105704
4229,-0.11264915054813499
4230,-0.10947012110684937
4231,-0.10610845371768238
4232,-0.10257216604536047
4233,-0.09887056062745567
4234,-0.09501420871034102
4235,-0.09101491997736239
4236,-0.086885698923787
4237,-0.08264068935804644
4238,-0.0782951081654563
4239,-0.07386516821012856
4240,-0.06936798850386217
4241,-0.06482148822546735
4242,-0.06024426059754249
4243,-0.055655423487055
4244,-0.05107444575646886
4245,-0.046520951168360844
4246,-0.042014504162146124
4247,-0.037574383409666026
4248,-0.03321934946355703
4249,-0.02896741217851173
4250,-0.02483560234861129
4251,-0.020839750802344494
4252,-0.016994277672204267
4253,-0.013311995037310627
4254,-0.009803927429179043
4255,-0.006479156163919059
4256,-0.003344694383244036
4257,-0.0004053995121642978
4258,0.0023360716394151826
4259,0.004879262558027092
4260,0.007225872250823433
4261,0.009379669962735121
4262,0.01134637548732785
4263,0.013133511753404117
4264,0.014750235515224516
4265,0.016207150366170577
4266,0.01751610476907786
4267,0.018689976999039196
4268,0.019742449140245748
4269,0.02068777351036867
4270,0.021540536663306943
4271,0.022315427684732117
4272,0.023027018024355278
4273,0.023689559141523125
4274,0.024316801976584597
4275,0.02492183946801403
4276,0.02551697092086619
4277,0.026113585638005636
4278,0.026722063100110716
4279,0.02735168801768323
4280,0.028010580330097998
4281,0.028705641929128126
4282,0.029442522697077228
4283,0.030225607891950806
4284,0.03105802716347568
4285,0.03194168326697911
4286,0.03287729669435105
4287,0.033864461539532535
4288,0.034901708179078145
4289,0.0359865696958267
4290,0.03711565101175773
4291,0.03828470167773097
4292,0.039488694313353445
4293,0.040721910287121195
4294,0.04197803258154612
4295,0.04325024368561054
4296,0.04453132469775783
4297,0.04581375122973818
4298,0.047089782381709085
4299,0.048351540829772714
4300,0.04959108440887687
4301,0.050800471705812984
4302,0.05197182529311566
4303,0.05309739589751273
4304,0.054169629206471066
4305,0.05518123489836113
4306,0.05612525567742692
4307,0.05699513319156488
4308,0.05778476792869686
4309,0.05848857143047762
4310,0.05910151102225677
4311,0.05961914900295516
4312,0.0600376790369045
4313,0.06035396188381515
4314,0.06056556083384796
4315,0.06067077508696078
4316,0.06066866773016324
4317,0.060559084503600424
4318,0.06034266034030944
4319,0.060020812484449466
4320,0.0595957213139674
4321,0.05907030204028169
4322,0.05844817143073764
4323,0.057733613205065114
4324,0.05693154407147608
4325,0.056047480259836635
4326,0.05508750270042109
4327,0.05405821824172722
4328,0.052966714703445834
4329,0.05182050898578816
4330,0.050627489421401294
4331,0.04939585528064136
