Time (Seconds),Amplitude (Volts) [Filtered 0.3-10.0Hz]
20604,-0.10234482957051072
20605,-0.10258716617542962
20606,-0.10270263979125957
20607,-0.10268930915260377
20608,-0.10254552242920803
20609,-0.102269980446278
20610,-0.10186208367220631
20611,-0.10132188728607633
20612,-0.10064960295348954
20613,-0.09984492890719576
20614,-0.09890607959450282
20615,-0.09782882032929416
20616,-0.09660616631811347
20617,-0.09522846016027195
20618,-0.0936831630704234
20619,-0.09195453806455328
20620,-0.09002364375308355
20621,-0.08786864226785504
20622,-0.08546535193077587
20623,-0.08278795489485816
20624,-0.07980973826128421
20625,-0.07650399842346342
20626,-0.07284531126481081
20627,-0.0688110393036285
20628,-0.06438275676435193
20629,-0.059547494388987404
20630,-0.05429900408251792
20631,-0.04863908025203614
20632,-0.042578352556117
20633,-0.03613606899005446
20634,-0.029339316801013662
20635,-0.02222204352222301
20636,-0.014823579754643684
20637,-0.007186878099576188
20638,0.0006430670364385854
20639,0.008620775744102305
20640,0.016701456918003177
20641,0.02484106007156464
20642,0.03299581454655326
20643,0.04112232998230235
20644,0.049178247075515505
20645,0.05712292001109569
20646,0.06491784434933023
20647,0.0725270028358716
20648,0.07991744957638766
20649,0.08705991814678476
20650,0.09392903087227941
20651,0.10050304009816526
20652,0.1067633813949767
20653,0.11269458056418338
20654,0.11828458264885033
20655,0.1235246684816754
20656,0.1284085669511524
20657,0.13293172944309456
20658,0.13709158375454394
20659,0.14088813376581252
20660,0.14432417648545626
20661,0.14740534591344404
20662,0.15013997160083914
20663,0.15253855473280592
20664,0.15461341073180626
20665,0.15637870032603335
20666,0.1578500432328823
20667,0.1590432557992381
20668,0.15997269529250965
20669,0.16064987222801932
20670,0.16108290977733275
20671,0.1612770974404166
20672,0.16123605697067467
20673,0.16096295581618114
20674,0.16046168498357524
20675,0.15973788190202476
20676,0.15879946228530978
20677,0.1576565742540969
20678,0.156321153270336
20679,0.154806350275298
20680,0.15312625812816943
20681,0.15129610505968893
20682,0.14933240286419636
20683,0.14725252370241884
20684,0.14507396959712465
20685,0.14281392536312715
20686,0.1404890417725006
20687,0.13811489118528075
20688,0.13570515918196976
20689,0.13327140760237746
20690,0.13082354785525843
20691,0.1283700559536869
20692,0.12591761864853818
20693,0.12347100110932549
20694,0.12103341325163647
20695,0.11860699192508753
20696,0.11619318967255109
20697,0.11379276766389369
20698,0.1114052487688603
20699,0.10902824918527709
20700,0.1066568041391729
20701,0.10428266216678578
20702,0.1018942326279946
20703,0.09947758079031008
20704,0.09701788020154356
20705,0.09450078414601004
20706,0.09191368251862965
20707,0.08924676038347068
20708,0.08649348704446065
20709,0.08365034748473857
20710,0.08071619915774632
20711,0.07769170107073704
20712,0.07457882796868857
20713,0.0713806073275026
20714,0.06810147848158106
20715,0.06474798503905839
20716,0.061329127484210294
20717,0.05785627341752504
20718,0.05434247987926423
20719,0.05080099844552188
20720,0.047243827818756814
20721,0.0436814499764598
20722,0.040123346210743746
20723,0.03657822885257064
20724,0.03305391765850052
20725,0.029557160302587704
20726,0.02609345034121159
20727,0.022667192839423603
20728,0.01928244651699594
20729,0.01594369469627127
20730,0.0126560311941456
20731,0.009424800848687326
20732,0.006255159662049231
20733,0.0031520082398382165
20734,0.00012022678780412854
20735,-0.00283535567620552
20736,-0.0057103843973371204
20737,-0.008501335921863945
20738,-0.011205535590674831
20739,-0.013820838520668621
20740,-0.016345187478059603
20741,-0.0187765189702698
20742,-0.021113002235133044
20743,-0.023353001985948835
20744,-0.025494496196014488
20745,-0.027534180874370734
20746,-0.02946680476391003
20747,-0.0312854386939132
20748,-0.03298273497151086
20749,-0.034552334009402
20750,-0.03598982841549253
20751,-0.03729350075754734
20752,-0.03846491891599704
20753,-0.039509098480951355
20754,-0.04043423151822165
20755,-0.041251065540760884
20756,-0.04197199598304202
20757,-0.042610394033786414
20758,-0.0431804809572605
20759,-0.043697244273374264
20760,-0.04417601180495459
20761,-0.04463191608328715
20762,-0.04507951368621027
20763,-0.045532675527277994
20764,-0.04600488194993589
20765,-0.046509652020364195
20766,-0.047060366270498866
20767,-0.047669391257794
20768,-0.04834732144041268
20769,-0.04910277515190098
20770,-0.049942306982061216
20771,-0.050870149647619975
20772,-0.0518881813653882
20773,-0.05299617944634244
20774,-0.05419187325383498
20775,-0.055470947039887086
20776,-0.056827442589133914
20777,-0.05825428806297461
20778,-0.059743599702134234
20779,-0.06128683036450866
20780,-0.06287471160779332
20781,-0.06449697765352846
20782,-0.0661423210026689
20783,-0.06779869387045523
20784,-0.06945346230500668
20785,-0.07109347012252654
20786,-0.07270557428418689
20787,-0.07427755319698748
20788,-0.07579905597052342
20789,-0.07726282386922308
20790,-0.07866597165175808
20791,-0.08001031264057952
20792,-0.08130145831310816
20793,-0.08254751967067965
20794,-0.08375807333548922
20795,-0.08494326944869772
20796,-0.08611272056949099
20797,-0.08727445214864049
20798,-0.08843454419461631
20799,-0.0895974060274022
20800,-0.09076618943828454
20801,-0.09194304186577582
20802,-0.09312898849146968
20803,-0.09432368940069835
20804,-0.0955257633194583
20805,-0.09673363400857403
20806,-0.09794618385910839
20807,-0.0991630745659909
20808,-0.10038495805915112
20809,-0.10161343361906172
20810,-0.10285077165025794
20811,-0.10409966894909348
20812,-0.10536288488141483
20813,-0.10664274947402147
20814,-0.10794101375264434
20815,-0.10925899419904354
20816,-0.11059760684605617
20817,-0.11195737734043121
20818,-0.11333862979054345
20819,-0.11474186302867742
20820,-0.116168172016449
20821,-0.11761937351365269
20822,-0.11909776251050824
20823,-0.12060568201630259
20824,-0.12214480845842837
20825,-0.12371526082827367
20826,-0.1253151167355412
20827,-0.12694053023217147
20828,-0.1285861458972297
20829,-0.13024550578946723
20830,-0.1319111005974851
20831,-0.13357395225853907
20832,-0.1352232803687645
20833,-0.13684674326999982
20834,-0.13843090668745758
20835,-0.13996138279929232
20836,-0.14142254207803615
20837,-0.142797114240547
20838,-0.14406651301188217
20839,-0.14521238980563006
20840,-0.14621832914113994
20841,-0.14707038839483244
20842,-0.14775687229716788
20843,-0.1482682765359447
20844,-0.14859748303802325
20845,-0.14874004668276716
20846,-0.14869456305438658
20847,-0.14846297832485536
20848,-0.14805072461006832
20849,-0.14746679416194755
20850,-0.14672380122555848
20851,-0.14583773969824257
20852,-0.14482727456864147
20853,-0.14371306688926758
20854,-0.14251781159966115
20855,-0.14126673028282077
20856,-0.13998757288040983
20857,-0.13870991969374533
20858,-0.13746414389773914
20859,-0.13628022168473639
20860,-0.13518671188417794
20861,-0.13421008292648992
20862,-0.1333739920166126
20863,-0.1326982998913962
20864,-0.13219820797320958
20865,-0.1318836429769685
20866,-0.13175853548472996
20867,-0.13182005559994364
20868,-0.1320582283917496
20869,-0.13245611988711412
20870,-0.13299077797310613
20871,-0.1336351308598033
20872,-0.1343605136185159
20873,-0.13513904125888487
20874,-0.13594535773583688
20875,-0.1367577020012591
20876,-0.1375582102096334
20877,-0.1383326203055247
20878,-0.1390698535343253
20879,-0.13976156815426707
20880,-0.14040146058286393
20881,-0.14098437655973164
20882,-0.14150565985165547
20883,-0.14196111510166104
20884,-0.14234751521394115
20885,-0.14266331098800303
20886,-0.14290913621552687
20887,-0.14308766498836814
20888,-0.14320307003165078
20889,-0.14326104756917257
20890,-0.14326927314074225
20891,-0.14323707706387068
20892,-0.14317437497997876
20893,-0.14309089841416006
20894,-0.1429960646041585
20895,-0.14289920992512525
20896,-0.14280962084449045
20897,-0.142735910833566
20898,-0.14268528081497206
20899,-0.14266355928376484
20900,-0.14267589494145874
20901,-0.14272722767197513
20902,-0.14282204983460947
20903,-0.14296368995010134
20904,-0.14315371921371073
20905,-0.14339178926854998
20906,-0.1436757985543062
20907,-0.14400229115771826
20908,-0.14436683916413295
20909,-0.14476431041659385
20910,-0.14518969969870427
20911,-0.14563991064907006
20912,-0.14611553461839333
20913,-0.14662134146320785
20914,-0.14716525986716916
20915,-0.1477567744064127
20916,-0.14840581761088736
20917,-0.14912227576007683
20918,-0.14991526308507877
20919,-0.15079180773571632
20920,-0.15175590372581893
20921,-0.15280871169920007
20922,-0.153949174905997
20923,-0.15517399946698535
20924,-0.1564770995801584
20925,-0.15784918480181395
20926,-0.1592778452006237
20927,-0.16074818191421059
20928,-0.1622436104681004
20929,-0.16374628876146977
20930,-0.16523730260034597
20931,-0.16669709147357475
20932,-0.16810593314696473
20933,-0.1694439132840633
20934,-0.17069034349209883
20935,-0.17182335203507013
20936,-0.17282031424854563
20937,-0.17365881184570042
20938,-0.1743174649241433
20939,-0.17477654418928215
20940,-0.1750183372793201
20941,-0.17502715651095235
20942,-0.1747892109948323
20943,-0.1742924609471785
20944,-0.17352622258788675
20945,-0.17248061836093945
20946,-0.17114625467262937
20947,-0.16951403646389177
20948,-0.16757485416700485
20949,-0.16531924152358374
20950,-0.16273701839216978
20951,-0.1598168073088978
20952,-0.1565457464364059
20953,-0.15290989707318717
20954,-0.14889539568527366
20955,-0.1444898698922722
20956,-0.139683459347395
20957,-0.13446917074359105
20958,-0.12884287641966005
20959,-0.12280354672298703
20960,-0.11635408388495794
20961,-0.10950242973196078
20962,-0.10226234892663562
20963,-0.09465391633650377
20964,-0.08670399193487127
20965,-0.07844637666276993
20966,-0.0699212984602057
20967,-0.061174434124142064
20968,-0.052255738308607386
20969,-0.043218240647693945
20970,-0.03411706462686441
20971,-0.02500868115385084
20972,-0.01594992975633553
20973,-0.0069965777606844776
20974,0.0017979558388120653
20975,0.010383057825835387
20976,0.018710828317634876
20977,0.026736106940706036
20978,0.0344168495536456
20979,0.0417146846098478
20980,0.04859533118962503
20981,0.055028719884571684
20982,0.06098912964188294
20983,0.06645569833168127
20984,0.0714132410282456
20985,0.07585308700177162
20986,0.07977354929605983
20987,0.08317991153370793
20988,0.08608445249946164
20989,0.08850665327749177
20990,0.09047278530919468
20991,0.09201446520535798
20992,0.09316678247225807
20993,0.0939666881042383
20994,0.09445164172693282
20995,0.09465806461383974
20996,0.09461974160934461
20997,0.09436703167181498
20998,0.0939270521827117
20999,0.09332405421369035
21000,0.09257971730788798
21001,0.0917136566282905
21002,0.09074383775775963
21003,0.08968656086133603
21004,0.08855654863333288
21005,0.08736741025888321
21006,0.08613174713779
21007,0.08486059370051559
21008,0.08356280531212187
21009,0.08224471826468446
21010,0.08091016041217843
21011,0.07956100949083245
21012,0.07819795950887995
21013,0.07682097766100868
21014,0.07542962635984252
21015,0.07402355088461496
21016,0.07260283518927124
21017,0.07116792181447154
21018,0.06971935155816483
21019,0.0682575674344826
21020,0.06678255277705009
21021,0.06529315354519345
21022,0.06378656756459578
21023,0.06225860882735687
21024,0.060704671661689066
21025,0.05912083711836519
21026,0.05750464129551957
21027,0.055855176418606156
21028,0.05417263909057474
21029,0.05245781275156679
21030,0.05071152412721524
21031,0.0489338532910375
21032,0.04712321509207052
21033,0.04527536852720864
21034,0.04338244081291911
21035,0.04143263065806096
21036,0.03941107217602262
21037,0.03730128999553231
21038,0.03508634939305026
21039,0.032749568215209524
21040,0.030275306247939573
21041,0.02765003949360194
21042,0.02486327126292509
21043,0.021907813593068953
21044,0.018779538868819716
21045,0.015477082836232989
21046,0.012001826761663871
21047,0.008358120294448268
21048,0.004553276599934354
21049,0.0005969486905906193
21050,-0.0034995522092051493
21051,-0.007723216824395085
21052,-0.012058914479626495
21053,-0.01648927668039061
21054,-0.020994699600293543
21055,-0.025553149954393152
21056,-0.030140082443422506
21057,-0.034728786397221746
21058,-0.03929113674050398
21059,-0.04379850734651334
21060,-0.04822250217278708
21061,-0.05253534255965049
21062,-0.05671017176222345
21063,-0.06072174313748508
21064,-0.06454751256711151
21065,-0.06816868456565982
21066,-0.0715709708984407
21067,-0.07474498909468434
21068,-0.07768623024016319
21069,-0.08039481721751505
21070,-0.08287509594929068
21071,-0.08513472279458459
21072,-0.08718338128028219
21073,-0.08903167884254862
21074,-0.09069048826946288
21075,-0.0921708126462027
21076,-0.09348403248331955
21077,-0.09464196401684483
21078,-0.09565636785001613
21079,-0.09653824848973999
21080,-0.09729754583698833
21081,-0.09794343352310356
21082,-0.09848471481308496
21083,-0.0989296790150283
21084,-0.09928579998675952
21085,-0.09956003975067318
21086,-0.09975943098630788
21087,-0.09989143605902846
21088,-0.0999643175555503
21089,-0.09998739472307475
21090,-0.0999708845946147
21091,-0.09992570930866863
21092,-0.09986344795731308
21093,-0.09979605647771893
21094,-0.09973525546658407
21095,-0.09969191755772128
21096,-0.09967589784256856
21097,-0.09969646037948285
21098,-0.09976282777563156
21099,-0.09988425979825882
21100,-0.1000697067075369
21101,-0.10032750818193198
21102,-0.10066528016835045
21103,-0.10108972566597665
21104,-0.10160618561511353
21105,-0.10221790648357243
21106,-0.10292523471493932
21107,-0.1037254005261605
21108,-0.10461303285508541
21109,-0.10558042861963746
21110,-0.10661702257559691
21111,-0.10770869249295092
21112,-0.10883769731795279
21113,-0.10998352536094161
21114,-0.11112423727687554
21115,-0.11223763728064129
21116,-0.11330226601662859
21117,-0.11429867887729299
21118,-0.11521103024389129
21119,-0.11602837621679593
21120,-0.11674502831639294
21121,-0.11735988460129099
21122,-0.117875343096242
21123,-0.118296222009757
21124,-0.11862851042829223
21125,-0.11887806042554294
21126,-0.11904989715884254
21127,-0.11914828847540514
21128,-0.11917710965073489
21129,-0.119140337317072
21130,-0.11904267985060787
21131,-0.11889007970647048
21132,-0.11868979134523013
21133,-0.11845023402783303
21134,-0.11818103792669679
21135,-0.11789299641183387
21136,-0.11759739318236968
21137,-0.11730502485659941
21138,-0.11702562568645679
21139,-0.1167678323053675
21140,-0.11653935104794017
21141,-0.11634713850570444
21142,-0.11619770730344486
21143,-0.11609756405512825
21144,-0.11605350340398404
21145,-0.11607247549663557
21146,-0.116160982294155
21147,-0.11632426245542105
21148,-0.116565639121774
21149,-0.11688624519187621
21150,-0.11728520346242367
21151,-0.11776016063923703
21152,-0.11830778879194329
21153,-0.11892404844817656
21154,-0.11960457627818237
21155,-0.12034553741546511
21156,-0.12114467703725344
21157,-0.12200190150916519
21158,-0.12291892075038544
21159,-0.12389831073204044
21160,-0.12494265692314721
21161,-0.12605374104525766
21162,-0.12723153264799314
21163,-0.12847318789209972
21164,-0.12977247048307386
21165,-0.13111996841411952
21166,-0.13250393865381876
21167,-0.1339110866485115
21168,-0.13532699880527177
21169,-0.13673652663022628
21170,-0.13812437819835058
21171,-0.1394759214291483
21172,-0.14077802986540117
21173,-0.1420197261341697
21174,-0.14319251065913452
21175,-0.1442904800750977
21176,-0.14531033053836231
21177,-0.14625117652085814
21178,-0.14711415881249443
21179,-0.14790206857054877
21180,-0.14861923202162125
21181,-0.1492715048541809
21182,-0.14986611755237694
21183,-0.15041144595896258
21184,-0.15091679944969139
21185,-0.1513921636775818
21186,-0.1518478780737712
21187,-0.15229434462161986
21188,-0.15274198747311393
21189,-0.15320147941719053
21190,-0.1536839335589787
21191,-0.15420082246176484
21192,-0.15476348783266747
21193,-0.1553822528636758
21194,-0.15606540111649755
21195,-0.15681819736171182
21196,-0.15764207824506468
21197,-0.15853435543431094
21198,-0.15948847030463015
21199,-0.1604943302899734
21200,-0.16153858624273085
21201,-0.16260514679224627
21202,-0.1636759727135444
21203,-0.16473203695235503
21204,-0.16575442274538071
21205,-0.16672527214367638
21206,-0.16762815607896986
21207,-0.16844806769293985
21208,-0.16917172929870336
21209,-0.16978826133457114
21210,-0.17028958071054834
21211,-0.1706702381604151
21212,-0.17092706402874958
21213,-0.17105923126200018
21214,-0.1710688616593562
21215,-0.17096146256487452
21216,-0.17074546261262133
21217,-0.17043098539033552
21218,-0.1700286304224501
21219,-0.16954894378775198
21220,-0.16900278010896283
21221,-0.16840207374649327
21222,-0.1677601848084562
21223,-0.16709157935601437
21224,-0.16641125439095208
21225,-0.16573407893470873
21226,-0.16507385069496405
21227,-0.16444229046817382
21228,-0.1638487123793771
21229,-0.16330041135058462
21230,-0.16280286608247696
21231,-0.16235937908848858
21232,-0.16197068027641104
21233,-0.16163479527556954
21234,-0.16134704629120503
21235,-0.16110027033476432
21236,-0.16088533756373422
21237,-0.16069189044067128
21238,-0.16050958259078021
21239,-0.16032991527989351
21240,-0.16014782146739762
21241,-0.15996208816702817
21242,-0.1597746812748083
21243,-0.15958975015322815
21244,-0.159413004784504
21245,-0.15925141106421006
21246,-0.1591127199225986
21247,-0.15900489582283392
21248,-0.15893578853875134
21249,-0.15891284177011916
21250,-0.15894259332202007
21251,-0.15903029470556881
21252,-0.15917987303659703
21253,-0.15939383033498467
21254,-0.1596726438097937
21255,-0.16001381150093585
21256,-0.16041097854470165
21257,-0.1608533562601522
21258,-0.1613256351188079
21259,-0.16180880938683695
21260,-0.16228192660652913
21261,-0.16272384781966495
21262,-0.16311408431532243
21263,-0.1634329010097564
21264,-0.16366134329217039
21265,-0.16378125556500728
21266,-0.16377511544323903
21267,-0.16362574274900035
21268,-0.16331593342333883
21269,-0.16282803204971344
21270,-0.16214369179280755
21271,-0.1612440246532809
21272,-0.16010994050813357
21273,-0.1587223385474638
21274,-0.15706208654213927
21275,-0.15511019376696572
21276,-0.15284877693864274
21277,-0.15026280321640806
21278,-0.1473416845227705
21279,-0.1440797720095246
21280,-0.14047571325612293
21281,-0.1365314344459304
21282,-0.13225146165163196
21283,-0.12764253197314615
21284,-0.12271299696216731
21285,-0.11747199293368278
21286,-0.1119288844297816
21287,-0.10609349778359495
21288,-0.09997724716751916
21289,-0.0935944003858822
21290,-0.0869624367414623
21291,-0.0801014656971787
21292,-0.07303364808407607
21293,-0.06578315949568042
21294,-0.05837617312864353
21295,-0.0508403958744226
21296,-0.04320472537491904
21297,-0.035499485664469865
21298,-0.027756591132823916
21299,-0.02000900662062502
21300,-0.012289677837982599
21301,-0.00463052917712814
21302,0.0029377988563391577
21303,0.010385616071595521
21304,0.017684170649478442
21305,0.024806182206371735
21306,0.031726318368869966
21307,0.03842124584665496
21308,0.04486959235065846
21309,0.05105219650099585
21310,0.05695241957442579
21311,0.06255630601162923
21312,0.06785276945772686
21313,0.07283387779826705
21314,0.07749514327465695
21315,0.0818358781813541
21316,0.08585967574677905
21317,0.08957478953049794
21318,0.09299416110397585
21319,0.09613500286235738
21320,0.09901804114007162
21321,0.101666782325324
21322,0.10410687182415931
21323,0.10636534115502622
21324,0.10847011082299088
21325,0.11045010439296682
21326,0.11233536502270544
21327,0.11415646967055448
21328,0.11594327879451086
21329,0.11772351684587978
21330,0.11952164514050365
21331,0.12135811215625811
21332,0.12324889973666689
21333,0.12520540489385382
21334,0.12723462650505113
21335,0.12933947375688612
21336,0.13151911887122825
21337,0.13376937678563786
21338,0.13608307470909564
21339,0.13845053950129485
21340,0.14086008943061917
21341,0.14329819840446775
21342,0.14574947411192274
21343,0.14819669724695347
21344,0.1506209320134026
21345,0.15300175716046363
21346,0.15531752549433606
21347,0.15754555324211506
21348,0.15966249238751354
21349,0.16164521880928628
21350,0.16347219858561693
21351,0.16512477594991293
21352,0.16658791287762878
