Time (Seconds),Amplitude (Volts) [Filtered 0.3-10.0Hz]
10437,-0.3079924077583208
10438,-0.3076254182232747
10439,-0.30726411306014834
10440,-0.30691132896303386
10441,-0.3065710728331422
10442,-0.30624859054469566
10443,-0.3059504037482563
10444,-0.3056843125097073
10445,-0.3054593622540338
10446,-0.3052857744331344
10447,-0.3051748414692507
10448,-0.30513878764946234
10449,-0.3051905986102313
10450,-0.3053438228166321
10451,-0.30561234907281554
10452,-0.30601016469134384
10453,-0.3065510995443637
10454,-0.30724856178493587
10455,-0.30811527147919376
10456,-0.30916299865425734
10457,-0.31040231230583876
10458,-0.3118423467203191
10459,-0.31349059106317223
10460,-0.31535270758723977
10461,-0.31743238303936205
10462,-0.3197312168998772
10463,-0.3222486489644554
10464,-0.324981927489915
10465,-0.32792611778054037
10466,-0.3310741498245091
10467,-0.33441690245013067
10468,-0.3379433204136073
10469,-0.34164055982768793
10470,-0.3454941564702685
10471,-0.34948821091236293
10472,-0.35360558417504173
10473,-0.35782809777817415
10474,-0.36213673252172507
10475,-0.3665118210228161
10476,-0.3709332297623473
10477,-0.3753805270609151
10478,-0.379833133997816
10479,-0.38427045586463054
10480,-0.3886719923184067
10481,-0.3930174249008004
10482,-0.3972866809760822
10483,-0.401459973529031
10484,-0.40551781688344635
10485,-0.4094410193833343
10486,-0.4132106553328988
10487,-0.4168080198235402
10488,-0.4202145713494892
10489,-0.4234118682504349
10490,-0.4263815058906726
10491,-0.4291050619052911
10492,-0.4315640566991361
10493,-0.43373993569164443
10494,-0.4356140786513941
10495,-0.437167839965913
10496,-0.4383826219671052
10497,-0.43923998161146716
10498,-0.4397217690221929
10499,-0.43981029476559486
10500,-0.4394885213936292
10501,-0.438740273858356
10502,-0.43755046298508027
10503,-0.435905316347997
10504,-0.4337926116130282
10505,-0.4312019085041561
10506,-0.4281247766744987
10507,-0.42455501762542536
10508,-0.4204888792843532
10509,-0.4159252619190167
10510,-0.41086591376597215
10511,-0.4053156141221129
10512,-0.39928234076422336
10513,-0.3927774175766726
10514,-0.3858156373923869
10515,-0.3784153544687737
10516,-0.3705985408272536
10517,-0.362390800927442
10518,-0.35382133985698844
10519,-0.344922881396297
10520,-0.33573153386623034
10521,-0.326286603356591
10522,-0.3166303554794954
10523,-0.3068077280184487
10524,-0.2968659977676778
10525,-0.28685440558333514
10526,-0.27682374423451467
10527,-0.2668259140138298
10528,-0.2569134512804208
10529,-0.2471390353275984
10530,-0.23755497937308567
10531,-0.22821271209568977
10532,-0.21916225683214935
10533,-0.21045171607554913
10534,-0.20212676914848848
10535,-0.19423019086067278
10536,-0.18680139864209522
10537,-0.1798760350686922
10538,-0.17348559186457263
10539,-0.1676570804612187
10540,-0.16241275321213483
10541,-0.15776987860949265
10542,-0.1537405734246413
10543,-0.15033169450389278
10544,-0.14754479275771964
10545,-0.14537613146456296
10546,-0.14381677028230438
10547,-0.14285271533710658
10548,-0.14246513448937947
10549,-0.14263063544738958
10550,-0.1433216029540763
10551,-0.14450658994348403
10552,-0.14615075638008235
10553,-0.1482163484055405
10554,-0.15066320940539718
10555,-0.1534493137578044
10556,-0.15653131347174698
10557,-0.15986508773553404
10558,-0.16340628553425585
10559,-0.16711085184940683
10560,-0.17093552847171256
10561,-0.17483832118633902
10562,-0.17877892607913837
10563,-0.18271910890932236
10564,-0.18662303275029557
10565,-0.19045753028548712
10566,-0.19419231825628103
10567,-0.19780015272183304
10568,-0.20125692512562787
10569,-0.20454170063838512
10570,-0.2076367016949326
10571,-0.21052724092212682
10572,-0.21320160875754185
10573,-0.21565092205793612
10574,-0.21786894091826747
10575,-0.2198518616892547
10576,-0.22159809468023178
10577,-0.22310803519959016
10578,-0.22438383639732895
10579,-0.2254291918098137
10580,-0.22624913456280105
10581,-0.22684985893414877
10582,-0.22723856852392182
10583,-0.22742335371695932
10584,-0.22741309951903899
10585,-0.22721742327417366
10586,-0.2268466402892127
10587,-0.22631175403396414
10588,-0.22562446637386818
10589,-0.22479720227976008
10590,-0.22384314271833855
10591,-0.2227762590067237
10592,-0.22161134181417436
10593,-0.22036401818326945
10594,-0.21905075040652072
10595,-0.217688811354235
10596,-0.21629623191991343
10597,-0.21489171755966718
10598,-0.21349453230141963
10599,-0.21212434997552893
10600,-0.21080107376417806
10601,-0.20954462648676553
10602,-0.20837471524668122
10603,-0.2073105750615155
10604,-0.20637069692003795
10605,-0.20557254651168122
10606,-0.20493228074331066
10607,-0.20446446996660445
10608,-0.2041818343353783
10609,-0.2040950027617739
10610,-0.20421230264917495
10611,-0.2045395881386225
10612,-0.20508011405570598
10613,-0.2058344619472637
10614,-0.2068005233949502
10615,-0.20797354415339775
10616,-0.20934623067639652
10617,-0.21090891838906878
10618,-0.2126497987212876
10619,-0.21455519948969765
10620,-0.2166099107728001
10621,-0.21879754608532948
10622,-0.22110092660081637
10623,-0.22350247462806605
10624,-0.22598460178351015
10625,-0.22853007752125862
10626,-0.23112236490460814
10627,-0.2337459125373843
10628,-0.23638639414996027
10629,-0.2390308902215199
10630,-0.24166800901096305
10631,-0.2442879472181283
10632,-0.2468824929441018
10633,-0.2494449755051374
10634,-0.25197016800129446
10635,-0.25445414948078393
10636,-0.25689413417772583
10637,-0.2592882756880543
10638,-0.2616354541472924
10639,-0.2639350545259335
10640,-0.26618674403619014
10641,-0.26839025631420244
10642,-0.27054518951507656
10643,-0.27265082472694413
10644,-0.2747059701230551
10645,-0.27670883503288973
10646,-0.2786569367551225
10647,-0.28054704163883737
10648,-0.2823751408456011
10649,-0.28413646030157125
10650,-0.2858255036234363
10651,-0.2874361261947031
10652,-0.2889616380102856
10653,-0.2903949323397344
10654,-0.2917286366507876
10655,-0.29295528158778206
10656,-0.2940674831659269
10657,-0.2950581328127919
10658,-0.295920589540737
10659,-0.2966488683865093
10660,-0.2972378192568389
10661,-0.2976832904179665
10662,-0.2979822711195844
10663,-0.29813300844237645
10664,-0.2981350945770763
10665,-0.2979895223298987
10666,-0.29769870838777973
10667,-0.2972664853780677
10668,-0.29669806480571037
10669,-0.29599997356788116
10670,-0.2951799670520796
10671,-0.2942469219131527
10672,-0.2932107115850946
10673,-0.29208206754155
10674,-0.29087242936072544
10675,-0.2895937867166195
10676,-0.28825851636859057
10677,-0.28687921700005603
10678,-0.28546854443035696
10679,-0.28403904936695135
10680,-0.28260301949424393
10681,-0.2811723273180272
10682,-0.27975828486825316
10683,-0.27837150621525697
10684,-0.27702177882294343
10685,-0.27571794496720126
10686,-0.27446779463882265
10687,-0.2732779714305828
10688,-0.2721538928886061
10689,-0.2710996867447073
10690,-0.27011814435275383
10691,-0.269210692490358
10692,-0.2683773844245715
10693,-0.2676169107957079
10694,-0.26692663052114185
10695,-0.2663026216509643
10696,-0.26573975196872823
10697,-0.26523176911150914
10698,-0.2647714100296953
10699,-0.26435052962292127
10700,-0.2639602482471877
10701,-0.2635911174027806
10702,-0.26323330230178865
10703,-0.2628767792647186
10704,-0.2625115450907427
10705,-0.26212783476415813
10706,-0.2617163431958519
10707,-0.2612684462209842
10708,-0.26077641578359523
10709,-0.2602336240984461
10710,-0.25963473153103744
10711,-0.2589758528926537
10712,-0.2582546967828435
10713,-0.25747067266477147
10714,-0.25662496075839214
10715,-0.2557205407072578
10716,-0.25476217623537617
10717,-0.2537563544432599
10718,-0.25271117980410474
10719,-0.251636224236911
10720,-0.25054233583323426
10721,-0.24944140984697963
10722,-0.24834612638306752
10723,-0.24726965987851332
10724,-0.24622536602637787
10725,-0.24522645228631978
10726,-0.24428563857813346
10727,-0.24341481519449248
10728,-0.2426247054049913
10729,-0.24192454061753652
10730,-0.24132175621336294
10731,-0.24082171613982054
10732,-0.240427473959781
10733,-0.24013957739856037
10734,-0.2399559226610337
10735,-0.23987166399014045
10736,-0.23987918302555306
10737,-0.23996812137008633
10738,-0.24012547833363226
10739,-0.24033577413004736
10740,-0.24058127687952305
10741,-0.24084228963584464
10742,-0.24109749140096745
10743,-0.24132432391340025
10744,-0.24149941416332518
10745,-0.24159902128695673
10746,-0.24159949580378567
10747,-0.24147773913253082
10748,-0.24121165201448683
10749,-0.24078056184675167
10750,-0.2401656207442187
10751,-0.23935016804560325
10752,-0.23832005264103653
10753,-0.23706391177780134
10754,-0.23557340391713535
10755,-0.23384339387244651
10756,-0.23187208894589814
10757,-0.22966112515031253
10758,-0.2272156029244685
10759,-0.22454407211854005
10760,-0.2216584665216779
10761,-0.21857398884037973
10762,-0.2153089477673487
10763,-0.21188454953935132
10764,-0.20832464711406143
10765,-0.20465545075017455
10766,-0.20090520429953054
10767,-0.19710383188050132
10768,-0.1932825598100796
10769,-0.18947351878639243
10770,-0.18570933141147478
10771,-0.18202269029268237
10772,-0.17844593220484722
10773,-0.1750106141362767
10774,-0.1717470973992301
10775,-0.16868414621500566
10776,-0.1658485471640218
10777,-0.16326475556532344
10778,-0.1609545742098615
10779,-0.15893686897781223
10780,-0.15722732485107133
10781,-0.15583824479083325
10782,-0.15477839290100065
10783,-0.15405288224807306
10784,-0.15366310676022388
10785,-0.15360671596515266
10786,-0.15387763110309566
10787,-0.15446610138657885
10788,-0.15535879970594643
10789,-0.15653895761232622
10790,-0.1579865396891509
10791,-0.15967845731973787
10792,-0.16158882134159808
10793,-0.1636892321721201
10794,-0.16594910482229053
10795,-0.16833602505397396
10796,-0.17081613207430513
10797,-0.17335452271578405
10798,-0.1759156718854534
10799,-0.17846386391231078
10800,-0.18096362911285174
10801,-0.18338017949229327
10802,-0.18567983718975978
10803,-0.1878304491929533
10804,-0.1898017820086048
10805,-0.19156589029763046
10806,-0.1930974538285139
10807,-0.19437407736698986
10808,-0.19537654832262769
10809,-0.1960890472078527
10810,-0.1964993063140702
10811,-0.1965987125362758
10812,-0.19638235105601892
10813,-0.1958489876720039
10814,-0.19500098890067585
10815,-0.19384418041561333
10816,-0.1923876458277935
10817,-0.19064346920024156
10818,-0.18862642606085595
10819,-0.18635362899288907
10820,-0.18384413504537828
10821,-0.1811185231323474
10822,-0.1781984502598281
10823,-0.17510619583434212
10824,-0.17186420342800127
10825,-0.16849462915419341
10826,-0.16501890525947893
10827,-0.16145732675391591
10828,-0.15782866799006534
10829,-0.1541498351276277
10830,-0.15043555939578995
10831,-0.14669813496140643
10832,-0.14294720402729125
10833,-0.13918959059188007
10834,-0.13542918320945918
10835,-0.1316668661973623
10836,-0.12790049811030496
10837,-0.12412493594354874
10838,-0.12033210334059415
10839,-0.11651110094570304
10840,-0.11264835690047889
10841,-0.10872781531140756
10842,-0.10473116026064799
10843,-0.10063807260434618
10844,-0.09642651653659079
10845,-0.09207305280395481
10846,-0.0875531754450723
10847,-0.08284166878393351
10848,-0.07791298101071908
10849,-0.07274161013886898
10850,-0.06730249765005639
10851,-0.061571424892462256
10852,-0.05552540727938593
10853,-0.04914308142901777
10854,-0.04240508051339506
10855,-0.035294393261371404
10856,-0.027796702336035428
10857,-0.01990069821581064
10858,-0.011598365247085768
10859,-0.0028852371129527155
10860,0.006239380604609213
10861,0.01577222298826761
10862,0.025705916021721675
10863,0.036028867767881945
10864,0.04672520464464916
10865,0.05777475762190365
10866,0.06915310325585242
10867,0.08083166384952961
10868,0.09277786975881813
10869,0.10495538513673197
10870,0.11732439642503215
10871,0.12984196083976796
10872,0.142462410082419
10873,0.1551378026059977
10874,0.167818416035525
10875,0.18045326991829952
10876,0.1929906680670662
10877,0.20537874953188923
10878,0.21756603771007482
10879,0.22950197809546036
10880,0.24113745639258016
10881,0.25242528994448854
10882,0.2633206865498043
10883,0.2737816657970727
10884,0.28376943908594526
10885,0.2932487455354782
10886,0.30218814190037663
10887,0.3105602453382625
10888,0.3183419284361272
10889,0.3255144664311411
10890,0.33206363712971776
10891,0.33797977465564943
10892,0.3432577788189999
10893,0.3478970825205059
10894,0.35190158007741623
10895,0.35527951957355813
10896,0.35804336227355693
10897,0.36020961187220274
10898,0.3617986160038349
10899,0.36283434212482785
10900,0.36334412966936913
10901,0.36335842030729626
10902,0.36291046823215883
10903,0.36203603265465123
10904,0.3607730549809955
10905,0.3591613234110504
10906,0.3572421278013002
10907,0.35505790748839905
10908,0.3526518942637473
10909,0.35006775189604555
10910,0.34734921279070685
10911,0.344539711846381
10912,0.34168201741376464
10913,0.3388178593682367
10914,0.33598755454144824
10915,0.3332296301135228
10916,0.3305804461401528
10917,0.3280738192264407
10918,0.32574065040929784
10919,0.3236085614765997
10920,0.32170154512866905
10921,0.3200396354528533
10922,0.31863860603005584
10923,0.31750970356601393
10924,0.3166594251853739
10925,0.31608934737487004
10926,0.31579601400025475
10927,0.31577088992118285
10928,0.3160003855808156
10929,0.3164659566157757
10930,0.3171442810587015
10931,0.3180075151192418
10932,0.3190236268517787
10933,0.3201568052847514
10934,0.32136794085640985
10935,0.3226151713288664
10936,0.3238544857508431
10937,0.32504037750812526
10938,0.32612653607928693
10939,0.3270665658869865
10940,0.3278147196785158
10941,0.3283266332213157
10942,0.3285600477634903
10943,0.32847550666889724
10944,0.3280370128806428
10945,0.3272126344086441
10946,0.3259750458992221
10947,0.3243019955518174
10948,0.322176688213054
10949,0.3195880773545411
10950,0.31653106070385933
10951,0.31300657640818635
10952,0.3090215986655176
10953,0.30458903370364643
10954,0.29972751882204285
10955,0.2944611289729979
10956,0.2888189970363015
10957,0.28283485545247783
10958,0.2765465081620898
10959,0.26999524289905485
10960,0.26322519490060126
10961,0.256282674051562
10962,0.24921546830590693
10963,0.24207213683062936
10964,0.23490130663593675
10965,0.22775098646086514
10966,0.22066791135102154
10967,0.21369693065437823
10968,0.2068804510378557
10969,0.20025794463210672
10970,0.19386553064859993
10971,0.18773563685572744
10972,0.181896745163235
10973,0.1763732232425689
10974,0.17118524160784757
10975,0.1663487729507221
10976,0.16187566792887023
10977,0.15777379931481805
10978,0.1540472646767631
10979,0.15069663675566525
10980,0.1477192504634606
10981,0.1451095158541391
10982,0.14285924730387176
10983,0.14095800023549995
10984,0.1393934078449437
10985,0.1381515113680746
10986,0.13721707852369083
10987,0.13657390594415147
10988,0.13620510261212554
10989,0.13609335240092915
10990,0.13622115459630182
10991,0.1365710416775071
10992,0.1371257736964398
10993,0.13786850845191626
10994,0.13878294648264097
10995,0.13985344981668713
10996,0.14106513345002558
10997,0.14240392867760188
10998,0.1438566176829705
10999,0.1454108392356477
11000,0.14705506598278414
11001,0.14877855467800497
11002,0.15057127170678142
11003,0.1524237972729291
11004,0.15432721243737146
11005,0.15627297379671856
11006,0.15825278098035617
11007,0.16025844233742048
11008,0.16228174413327
11009,0.16431432822407985
11010,0.16634758257155535
11011,0.1683725482773261
11012,0.1703798462242461
11013,0.1723596258958875
11014,0.17430153837784795
11015,0.1761947348818684
11016,0.17802789145267597
11017,0.1797892598602366
11018,0.18146674399296914
11019,0.18304800033082022
11020,0.18452056037728845
11021,0.18587197235121158
11022,0.1870899589911441
11023,0.18816258799975846
11024,0.1890784514723061
11025,0.1898268506310729
11026,0.19039798230958568
11027,0.19078312380054213
11028,0.19097481272764638
11029,0.19096701838751295
11030,0.19075530055583237
11031,0.19033695123904515
11032,0.189711114515592
11033,0.18887887963534108
11034,0.1878433429752552
11035,0.18660963519116414
11036,0.18518491085511443
11037,0.1835782989963519
11038,0.18180081426609299
11039,0.17986522985048736
11040,0.17778591461886614
11041,0.175578638164436
11042,0.17326034828641443
11043,0.17084892608563154
11044,0.16836292426471874
11045,0.16582129448741745
11046,0.16324310976261258
11047,0.1606472877675801
11048,0.15805232081663348
11049,0.15547601783273787
11050,0.15293526323205625
11051,0.15044579716810588
11052,0.1480220211827671
11053,0.14567683297785947
11054,0.14342149367950102
11055,0.1412655305375078
11056,0.13921667745030708
11057,0.13728085504418516
11058,0.13546219126820241
11059,0.13376308255251995
11060,0.13218429449577637
11061,0.13072509985753708
11062,0.12938345041404617
11063,0.12815617801751042
11064,0.1270392190172201
11065,0.1260278551506516
11066,0.12511696320880683
11067,0.12430126532610222
11068,0.12357557171162523
11069,0.12293500801359789
11070,0.1223752202152975
11071,0.12189255093210336
11072,0.12148418216179145
11073,0.1211482408366676
11074,0.12088386482009211
11075,0.12069122824042468
11076,0.12057152630875011
11077,0.12052692105038863
11078,0.12056045064409235
11079,0.12067590624052012
11080,0.12087768117456006
11081,0.1211705983154459
11082,0.12155972180382536
11083,0.12205015953979359
11084,0.12264686254605218
11085,0.1233544268661609
11086,0.12417690310682253
11087,0.12511761812726693
11088,0.1261790126763148
11089,0.12736249802393113
11090,0.12866833398793687
11091,0.13009553032921609
11092,0.13164177323078388
11093,0.1333033783230588
11094,0.13507527130823135
11095,0.13695099661854507
11096,0.13892275379089272
11097,0.1409814604546406
11098,0.14311684004466638
11099,0.14531753155742405
11100,0.14757121789346794
11101,0.14986476867963366
11102,0.15218439309161635
11103,0.1545157982296891
11104,0.15684434904665068
11105,0.15915522657397316
11106,0.16143358210806052
11107,0.16366468603707274
11108,0.1658340710477646
11109,0.16792767040131598
11110,0.16993195262549868
11111,0.17183405424401815
11112,0.17362191202765187
11113,0.17528439567523976
11114,0.1768114408383018
11115,0.1781941811523186
11116,0.17942507667855223
11117,0.18049803512293802
11118,0.1814085215372505
11119,0.1821536519800572
11120,0.18273226680504934
11121,0.18314497979342975
11122,0.18339420013882338
11123,0.18348412516055362
11124,0.18342070242475064
11125,0.18321156064084235
11126,0.18286590929445506
11127,0.18239440753800062
11128,0.1818090034641685
11129,0.18112274557972688
11130,0.18034956904973112
11131,0.17950406002792627
11132,0.17860120208248864
11133,0.17765610933673587
11134,0.17668375142212692
11135,0.17569867566501585
11136,0.17471473216696023
11137,0.17374480767872
11138,0.17280057439302726
11139,0.17189225985527198
11140,0.1710284439715935
11141,0.1702158885451598
11142,0.16945940398414727
11143,0.16876175693306572
11144,0.16812362168260025
11145,0.16754357738402628
11146,0.1670181523798074
11147,0.16654191632631382
11148,0.16610762012095098
11149,0.1657063828916956
11150,0.16532792446168496
11151,0.16496084072157813
11152,0.16459291813823956
11153,0.16421148219924236
11154,0.16380377308346628
11155,0.16335734044960754
11156,0.16286044808892539
11157,0.1623024784040296
11158,0.16167432636285375
11159,0.16096877281511973
11160,0.1601808278262846
11161,0.15930803583761896
11162,0.15835073578884132
11163,0.15731227066961997
11164,0.15619914224393108
11165,0.15502110794446097
11166,0.15379121817715027
11167,0.15252579348259138
11168,0.15124434215888477
11169,0.14996942010209321
11170,0.14872643583030876
11171,0.14754340491907764
11172,0.14645065925068765
11173,0.14548051737132195
11174,0.14466692275149465
11175,0.14404505687976918
11176,0.14365093396500817
11177,0.1435209836590748
11178,0.14369162772708524
11179,0.1441988560725018
11180,0.1450778070342218
11181,0.14636235643685233
11182,0.14808471946250934
11183,0.1502750689425744
11184,0.15296117306187743
11185,0.15616805472727957
11186,0.15991767409554478
11187,0.16422863515281622
11188,0.1691159169204717
11189,0.17459062987601487
11190,0.18065979846803457
11191,0.18732617103414284
11192,0.19458805887973243
11193,0.2024392067034791
11194,0.21086869693321797
11195,0.21986089078475293
11196,0.22939540890418078
11197,0.23944715428491894
